-0.009,-0.184,-0.012,-0.013,-0.007,0.07
-0.017,-0.186,0.02,-0.016,-0.005,0.068
-0.021,-0.178,0.008,-0.012,-0.008,0.063
-0.02,-0.176,0.008,-0.014,-0.013,0.058
-0.016,-0.163,0.017,-0.013,-0.009,0.058
-0.007,-0.156,0.005,-0.016,-0.009,0.066
-0.012,-0.164,-0.005,-0.018,0.002,0.091
-0.01,-0.173,-0.037,-0.019,0.003,0.092
0.008,-0.161,-0.057,-0.015,-0.01,0.078
0.016,-0.143,-0.077,-0.008,-0.019,0.076
0.029,-0.13,-0.1,0,-0.029,0.073
0.037,-0.12,-0.131,0.003,-0.032,0.069
0.048,-0.096,-0.124,-0,-0.027,0.057
0.053,-0.09,-0.114,0.004,-0.031,0.042
0.041,-0.116,-0.119,0.008,-0.036,0.029
0.025,-0.128,-0.106,-0.003,-0.02,0.04
0.015,-0.127,-0.084,-0.012,-0.009,0.036
-0.008,-0.159,-0.044,-0.023,0.001,0.045
-0.012,-0.149,0.003,-0.029,-0,0.032
-0.038,-0.163,0.018,-0.044,0.01,0.047
-0.049,-0.19,0.049,-0.041,0.015,0.047
-0.049,-0.212,0.032,-0.031,0.006,0.04
-0.036,-0.188,0.026,-0.027,0.001,0.052
-0.038,-0.18,0.037,-0.026,0.005,0.06
-0.044,-0.173,0.038,-0.03,0.008,0.062
-0.042,-0.175,0.033,-0.027,0.007,0.056
-0.025,-0.168,0.003,-0.012,-0.018,0.029
-0.016,-0.181,-0.019,-0.013,-0.021,0.028
-0.004,-0.195,-0.035,-0.017,-0.013,0.039
0.012,-0.164,-0.059,-0.009,-0.026,0.017
0.029,-0.146,-0.088,-0.01,-0.033,0.019
0.028,-0.128,-0.1,-0.013,-0.02,0.039
0.027,-0.125,-0.105,-0.011,-0.02,0.038
0.036,-0.126,-0.105,-0.009,-0.016,0.039
0.028,-0.123,-0.113,-0.013,-0.013,0.038
0.019,-0.117,-0.062,-0.015,-0.017,0.014
0.022,-0.111,-0.09,-0.009,-0.016,0.013
0.022,-0.111,-0.053,-0.013,-0.017,-0.017
-0.002,-0.145,-0.028,-0.019,-0.009,0.026
0.005,-0.143,-0.011,-0.017,-0.016,0.009
-0.006,-0.165,-0.013,-0.015,-0.012,0.015
-0.014,-0.158,0.001,-0.016,-0.016,0.006
-0.024,-0.157,-0.009,-0.016,-0.005,0.014
-0.036,-0.154,0.012,-0.03,0.013,0.029
-0.02,-0.119,0.013,-0.036,0.024,0.026
0.051,-0.065,-0.012,-0.025,0.008,0.007
0.053,-0.076,-0.023,-0.028,0.001,0.004
0.04,-0.099,-0.04,-0.021,-0.011,0.005
0.021,-0.125,-0.06,-0.02,-0.016,0.017
0.01,-0.139,-0.081,-0.022,-0.006,0.026
0.011,-0.14,-0.091,-0.02,-0.013,0.021
0.018,-0.122,-0.113,-0.015,-0.014,0.024
0.013,-0.116,-0.128,-0.016,-0.016,0.02
0.014,-0.11,-0.12,-0.01,-0.028,0.005
0.015,-0.092,-0.113,-0.004,-0.032,-0
0.023,-0.09,-0.107,-0.002,-0.041,-0.02
0.011,-0.115,-0.087,-0.011,-0.019,-0
-0.004,-0.129,-0.056,-0.02,-0.011,-0.008
0.012,-0.135,0.005,-0.016,-0.024,-0.034
0.026,-0.119,-0.017,-0.011,-0.013,-0.018
0.017,-0.124,0.037,-0.025,-0.006,-0.017
0.005,-0.124,0.004,-0.023,-0.002,-0.015
-0.001,-0.118,0.011,-0.018,-0.009,-0.017
-0.004,-0.134,0.021,-0.022,-0.002,-0.003
-0.008,-0.128,0.01,-0.021,-0,0.002
-0.006,-0.118,-0.002,-0.017,-0.005,0.004
0.003,-0.099,-0.021,-0.013,-0.005,0.013
0.013,-0.087,-0.049,-0.006,-0.009,0.01
0.017,-0.101,-0.074,-0.006,-0.016,0.008
0.015,-0.101,-0.095,-0.011,-0.018,0.007
0.021,-0.098,-0.116,-0.005,-0.02,0.007
0.019,-0.101,-0.119,-0.001,-0.023,0.001
0.025,-0.104,-0.126,-0.004,-0.021,-0.002
0.027,-0.09,-0.123,-0.008,-0.017,0.001
0.018,-0.075,-0.124,-0.013,-0.013,-0.001
0.016,-0.075,-0.11,-0.015,-0.005,-0.005
0.009,-0.066,-0.108,-0.016,-0.004,-0.005
0.004,-0.077,-0.051,-0.019,-0.002,-0.011
-0.008,-0.095,-0.021,-0.023,0.001,-0.005
-0.016,-0.125,-0.019,-0.027,0.008,0.011
-0.011,-0.122,0.049,-0.03,0.01,0.009
-0.007,-0.115,0.003,-0.022,0.004,0.011
-0.004,-0.098,0.012,-0.017,0.003,0.009
0.001,-0.084,0.017,-0.011,-0.005,0.003
-0.005,-0.077,0.018,-0.013,-0.003,0.012
-0.032,-0.089,0,-0.021,-0,0.033
-0.052,-0.084,-0.017,-0.019,0.002,0.039
-0.032,-0.084,-0.036,-0.02,-0.002,0.043
-0.033,-0.112,-0.051,-0.026,0.004,0.036
-0.036,-0.137,-0.082,-0.031,-0.006,0.033
-0.04,-0.13,-0.086,-0.033,0.002,0.033
0.006,-0.1,-0.111,-0.025,-0.001,0.027
0.062,-0.083,-0.122,-0.015,-0.017,0.009
0.091,-0.058,-0.133,-0.009,-0.03,0.003
0.068,-0.054,-0.125,-0.013,-0.021,0.019
0.04,-0.064,-0.103,-0.013,-0.011,0.022
0.027,-0.061,-0.093,-0.014,-0.021,-0.004
0.008,-0.07,-0.051,-0.022,-0.019,-0.018
-0.012,-0.076,-0.029,-0.041,0.004,-0.001
-0.02,-0.098,0.028,-0.032,0.014,0.027
-0.02,-0.108,-0.016,-0.025,0.004,0.014
0.002,-0.108,0.005,-0.018,-0.013,-0.008
0.007,-0.097,0.006,-0.018,-0.011,-0.004
0.009,-0.075,0.019,-0.023,0.001,0.012
0.029,-0.046,0.011,-0.024,0.011,0.026
0.033,-0.033,-0.005,-0.012,-0.015,-0.012
0.034,-0.029,-0.021,-0.018,-0.01,-0.003
0.029,-0.038,-0.037,-0.018,-0.012,0.001
0.026,-0.065,-0.064,-0.016,-0.018,0.001
0.021,-0.09,-0.081,-0.008,-0.043,-0.024
0.029,-0.07,-0.101,-0.01,-0.036,-0.009
0.029,-0.07,-0.104,-0.013,-0.028,-0.006
0.01,-0.07,-0.104,-0.021,-0.014,0.008
-0.009,-0.092,-0.097,-0.026,-0.01,0.011
-0.029,-0.102,-0.081,-0.026,-0.008,0.019
-0.011,-0.071,-0.071,-0.02,-0.008,0.01
0.03,-0.022,-0.08,-0.004,-0.021,-0.007
0.035,-0.017,-0.057,-0.008,-0.023,-0.007
0.015,-0.038,0.008,-0.016,-0.016,-0.024
0.018,-0.034,-0.017,-0.013,-0.014,-0.009
0.017,-0.045,0.057,-0.023,-0.005,-0.003
0.002,-0.081,0.017,-0.02,-0.003,-0.005
-0.028,-0.102,0.024,-0.024,-0,0.002
-0.042,-0.093,0.034,-0.029,0.016,0.013
-0.023,-0.101,0.036,-0.023,0.005,-0.001
-0.006,-0.078,0.017,-0.015,-0.008,-0.012
-0.032,-0.088,0.01,-0.026,-0.011,0.013
-0.053,-0.091,-0.014,-0.019,-0.007,0.035
-0.063,-0.095,-0.032,-0.021,-0.006,0.044
-0.049,-0.078,-0.052,-0.02,-0.012,0.033
-0.042,-0.074,-0.072,-0.018,-0.005,0.049
-0.017,-0.064,-0.083,-0.016,0.001,0.034
0.026,-0.044,-0.091,-0.001,-0.026,-0.006
0.048,-0.051,-0.089,0.001,-0.039,-0.03
0.043,-0.062,-0.08,-0.007,-0.024,-0.018
0.057,-0.045,-0.081,-0.006,-0.024,-0.039
0.061,-0.031,-0.068,0.004,-0.033,-0.044
0.051,-0.044,-0.012,-0.01,-0.029,-0.035
0.028,-0.067,0.014,-0.017,-0.013,-0.024
0.022,-0.077,0.015,-0.015,-0.015,-0.031
0.005,-0.095,0.067,-0.023,-0.007,-0.011
-0.011,-0.108,0.031,-0.02,0.004,-0.001
-0.023,-0.1,0.042,-0.015,-0.001,-0.005
-0.019,-0.102,0.045,-0.007,-0.014,0.008
-0.029,-0.103,0.045,-0.012,-0.001,0.04
-0.021,-0.07,0.035,-0.017,-0,0.041
-0.018,-0.065,0.027,-0.022,-0.007,0.023
-0.002,-0.061,-0.002,-0.007,-0.041,-0.026
-0.018,-0.046,-0.028,-0.019,-0.015,-0.011
-0.022,-0.044,-0.044,-0.026,-0.009,-0.017
0.007,-0.031,-0.056,-0.017,-0.019,-0.023
0.047,-0.039,-0.075,-0.01,-0.018,-0.016
0.054,-0.027,-0.106,-0.012,-0.013,0.004
0.043,-0.017,-0.1,-0.009,-0.018,-0.003
0.03,-0.018,-0.096,-0.006,-0.026,-0.013
0.021,-0.035,-0.077,-0.014,-0.015,-0.02
0.014,-0.043,-0.066,-0.015,-0.011,-0.024
0.008,-0.052,-0.012,-0.019,-0.011,-0.048
0.016,-0.04,-0.017,-0.013,-0.011,-0.04
0.008,-0.052,-0.008,-0.013,-0.007,-0.036
0.001,-0.063,0.012,-0.011,-0.008,-0.032
-0.017,-0.079,0.025,-0.019,0.006,-0.011
-0.028,-0.079,0.039,-0.022,0.009,-0.013
-0.032,-0.073,0.049,-0.024,0.007,-0.015
-0.034,-0.078,0.048,-0.03,0.009,-0.014
-0.016,-0.064,0.031,-0.028,0.002,-0.023
0.033,-0.033,0.002,-0.012,-0.025,-0.04
0.054,-0.017,-0.02,0.003,-0.027,-0.035
0.05,-0.01,-0.038,-0.012,-0.023,-0.03
0.03,-0.027,-0.06,-0.008,-0.017,-0.022
0.021,-0.028,-0.082,-0.005,-0.029,-0.027
0.026,-0.025,-0.097,0.002,-0.038,-0.028
0.024,-0.032,-0.114,-0.002,-0.036,-0.032
0.028,-0.032,-0.121,-0.001,-0.035,-0.039
0.033,-0.018,-0.101,-0.003,-0.031,-0.045
0.025,-0.016,-0.091,-0.008,-0.019,-0.029
0.01,-0.011,-0.048,-0.019,-0.01,-0.028
0.016,0.003,-0.05,-0.029,0.004,-0.025
0.006,0.005,-0.005,-0.032,0.011,-0.028
-0.003,-0.001,0.034,-0.034,0.01,-0.027
0.003,0.033,0.007,-0.029,0.016,-0.009
0,0.045,0.01,-0.031,0.013,-0.008
-0.007,0.033,0.037,-0.027,0.011,-0.011
-0.036,0,0.042,-0.026,0.012,-0.011
-0.04,-0.014,0.042,-0.03,0.011,-0.016
-0.05,-0.055,0.029,-0.022,-0.008,-0.032
-0.062,-0.094,0.031,-0.023,-0.009,-0.012
-0.031,-0.065,-0.003,-0.02,-0.011,-0.006
0.005,-0.015,-0.031,-0.01,-0.025,-0.023
0.03,0.019,-0.057,-0.005,-0.037,-0.041
0.047,0.04,-0.084,0.002,-0.036,-0.04
0.04,0.04,-0.089,-0.004,-0.033,-0.032
0.028,0.032,-0.097,-0.009,-0.028,-0.028
0.018,0.021,-0.096,-0.015,-0.021,-0.026
0.018,0.034,-0.075,-0.009,-0.022,-0.035
0.026,0.05,-0.071,-0.003,-0.026,-0.046
0.027,0.06,-0.08,-0.001,-0.025,-0.049
0.011,0.052,-0.043,-0.003,-0.022,-0.051
-0.002,0.057,-0.01,-0.004,-0.023,-0.045
-0.021,0.052,0.007,0,-0.021,-0.026
-0.036,0.05,0.098,-0.016,-0.012,-0.029
-0.057,0.031,0.053,-0.022,-0.001,-0.016
-0.081,0.004,0.064,-0.034,0.018,0.006
-0.08,0.006,0.081,-0.041,0.029,0.005
-0.02,0.058,0.071,-0.036,0.023,-0.029
0.04,0.075,0.038,-0.024,0.004,-0.045
0.051,0.083,0.028,-0.022,-0.008,-0.06
0.043,0.093,0,-0.02,-0.003,-0.046
0.041,0.097,-0.02,-0.019,-0.004,-0.042
0.032,0.095,-0.043,-0.019,-0.002,-0.032
0.025,0.093,-0.056,-0.017,-0.01,-0.033
0.025,0.095,-0.068,-0.013,-0.015,-0.039
0.024,0.094,-0.078,-0.017,-0.015,-0.047
0.024,0.105,-0.038,-0.012,-0.032,-0.063
0.017,0.099,-0.07,-0.01,-0.031,-0.059
0.015,0.1,-0.058,-0.003,-0.038,-0.074
0.011,0.099,-0.047,-0.002,-0.033,-0.065
-0.016,0.104,-0.031,-0.01,-0.016,-0.033
-0.03,0.098,-0.006,-0.013,-0.008,-0.013
-0.034,0.086,0.005,-0.01,-0.003,-0.016
-0.04,0.081,0.105,-0.023,-0.004,-0.043
-0.045,0.071,0.026,-0.015,-0.003,-0.049
-0.036,0.077,0.035,-0.013,-0.013,-0.075
0.001,0.092,0.036,-0.024,-0.002,-0.082
0.007,0.099,0.045,-0.044,0.019,-0.057
0.022,0.118,0.023,-0.035,0.004,-0.076
0.036,0.124,0.013,-0.027,-0.009,-0.082
0.02,0.129,-0.006,-0.023,-0.001,-0.058
0.01,0.136,-0.024,-0.025,-0.002,-0.051
0.01,0.146,-0.054,-0.017,-0.01,-0.05
0.006,0.143,-0.07,-0.019,-0.013,-0.033
0.016,0.153,-0.091,-0.011,-0.014,-0.046
0.023,0.149,-0.098,-0.005,-0.033,-0.081
0.025,0.136,-0.103,0.005,-0.051,-0.09
0.017,0.117,-0.085,-0.005,-0.032,-0.083
0.027,0.124,-0.075,-0.008,-0.022,-0.086
0.035,0.143,-0.085,-0.005,-0.021,-0.096
0.024,0.137,-0.063,-0.018,-0.005,-0.077
-0.002,0.129,-0.022,-0.022,0.01,-0.066
-0.008,0.114,0.257,-0.034,0.017,-0.09
-0.003,0.114,0.011,-0.025,0.015,-0.064
-0.013,0.087,0.043,-0.035,0.023,-0.034
0,0.115,0.032,-0.027,0.015,-0.034
-0.008,0.108,0.029,-0.027,0.018,-0.032
-0.016,0.097,0.031,-0.03,0.017,-0.03
-0.009,0.096,0.022,-0.033,0.015,-0.04
0.001,0.119,0.007,-0.021,-0.018,-0.067
0.002,0.115,-0.019,-0.016,-0.016,-0.075
0.028,0.134,-0.037,-0.012,-0.036,-0.111
0.048,0.159,-0.065,0.002,-0.042,-0.117
0.048,0.166,-0.083,0.005,-0.049,-0.104
0.043,0.158,-0.1,0.006,-0.04,-0.082
0.035,0.146,-0.104,-0.001,-0.034,-0.087
0.028,0.138,-0.103,-0.002,-0.031,-0.09
0.02,0.133,-0.096,-0.002,-0.03,-0.087
0.012,0.131,-0.078,-0.007,-0.016,-0.082
0.006,0.122,-0.063,-0.009,-0.018,-0.089
0.008,0.123,-0.04,-0.009,-0.017,-0.1
0.013,0.127,-0.033,-0.009,-0.017,-0.097
0.013,0.126,-0.001,-0.006,-0.015,-0.091
0.005,0.102,0.003,-0.013,-0.011,-0.086
-0.006,0.101,0.04,-0.018,-0.008,-0.075
-0.016,0.096,0.034,-0.024,0.005,-0.053
-0.026,0.091,0.047,-0.028,0.013,-0.038
-0.03,0.078,0.049,-0.037,0.021,-0.03
-0.024,0.099,0.043,-0.03,0.005,-0.038
-0.016,0.116,0.027,-0.027,-0.009,-0.042
-0.006,0.13,-0.002,-0.024,-0.003,-0.036
0.002,0.122,-0.033,-0.024,0.001,-0.022
0.011,0.118,-0.06,-0.021,-0.017,-0.037
0.008,0.118,-0.066,-0.02,-0.003,-0.024
0.011,0.116,-0.08,-0.017,-0.015,-0.022
0.012,0.116,-0.099,-0.016,-0.015,-0.039
0.02,0.12,-0.1,-0.016,-0.019,-0.051
0.022,0.12,-0.091,-0.013,-0.022,-0.057
0.021,0.112,-0.087,-0.007,-0.031,-0.069
0.02,0.102,-0.074,-0.008,-0.027,-0.064
0.02,0.104,-0.037,-0.013,-0.021,-0.064
0.015,0.101,-0.022,-0.012,-0.013,-0.061
0.012,0.102,-0.032,-0.01,-0.013,-0.052
0.013,0.112,-0.021,-0.007,-0.016,-0.054
0.005,0.115,-0.007,-0.011,-0.007,-0.053
-0.003,0.113,0.025,-0.014,-0.004,-0.052
-0.008,0.087,0.045,-0.019,0.001,-0.042
-0.024,0.044,0.06,-0.028,0.003,-0.036
-0.021,0.045,0.034,-0.028,-0.003,-0.032
-0.016,0.059,0.031,-0.026,-0.009,-0.031
-0.01,0.074,-0.014,-0.022,-0.016,-0.039
-0.012,0.061,-0.039,-0.021,-0.014,-0.029
-0.038,0.046,-0.051,-0.034,-0.003,-0.002
-0.039,0.059,-0.068,-0.025,-0.006,-0.007
-0.011,0.083,-0.097,-0.016,-0.018,-0.016
-0.006,0.076,-0.112,-0.017,-0.006,-0.009
-0.019,0.054,-0.11,-0.023,0.009,0.01
-0.022,0.039,-0.093,-0.018,0.004,-0.009
-0.01,0.036,-0.083,-0.011,-0.012,-0.035
0.005,0.045,-0.072,-0.005,-0.018,-0.046
0.005,0.041,-0.042,-0.009,-0.022,-0.044
-0.001,0.052,-0.023,-0.008,-0.017,-0.041
-0.007,0.048,-0.001,-0.01,-0.012,-0.038
-0.026,0.042,0.077,-0.019,-0.008,-0.03
-0.017,0.039,0.029,-0.024,0.017,0
0.016,0.053,0.037,-0.015,0.004,-0.022
0.036,0.049,0.037,-0.016,0,-0.011
0.023,0.038,0.042,-0.03,0.022,0.008
0.029,0.06,0.018,-0.023,0.001,-0.03
0.024,0.065,0.008,-0.021,-0.011,-0.042
0.044,0.096,-0.019,-0.01,-0.026,-0.059
0.059,0.112,-0.039,-0.017,-0.019,-0.052
0.057,0.112,-0.069,-0.015,-0.025,-0.05
0.046,0.104,-0.069,-0.009,-0.029,-0.047
0.03,0.088,-0.084,-0.013,-0.026,-0.039
0.018,0.052,-0.093,-0.012,-0.026,-0.038
-0.006,-0.01,-0.098,-0.017,-0.018,-0.018
-0.006,0.006,-0.072,-0.017,-0.014,-0.025
-0.016,0.014,-0.084,-0.012,-0.014,-0.016
-0.011,0.016,-0.08,-0.01,-0.019,-0.025
-0.007,0.005,-0.05,-0.012,-0.005,-0.01
-0.009,0.003,-0.001,-0.021,-0.001,-0.037
-0.016,-0.005,0.028,-0.014,-0.015,-0.048
-0.018,-0.022,0.102,-0.016,-0.014,-0.042
0.008,-0.028,0.021,-0.007,-0.016,-0.029
0.016,-0.02,0.026,-0.006,-0.016,-0.038
0.023,-0.019,0.024,-0.005,-0.023,-0.053
0.025,0.004,0.021,-0.013,-0.016,-0.042
0.025,0.01,0.028,-0.032,0.009,-0.015
0.003,-0.013,0.019,-0.044,0.031,0.002
-0.014,-0.042,-0.011,-0.043,0.021,-0.012
0,-0.027,-0.045,-0.024,-0.011,-0.037
0.017,-0.015,-0.064,-0.018,-0.013,-0.035
0.05,0.016,-0.09,-0.008,-0.018,-0.034
0.04,0.018,-0.114,-0.01,-0.018,-0.029
0.024,-0.011,-0.123,-0.014,-0.015,-0.025
0.017,-0.025,-0.117,-0.016,-0.008,-0.019
0.015,-0.023,-0.107,-0.016,-0.008,-0.024
0.002,-0.046,-0.108,-0.015,0.002,-0.016
-0.016,-0.082,-0.085,-0.034,0.008,-0.007
-0.025,-0.085,-0.012,-0.033,0.013,-0.011
-0.021,-0.075,0.001,-0.025,-0.006,-0.018
-0.016,-0.08,-0.016,-0.01,-0.02,-0.031
-0.005,-0.084,0.016,-0.006,-0.041,-0.056
0.015,-0.059,0.008,0.004,-0.045,-0.064
0.02,-0.048,0.013,-0.001,-0.027,-0.057
0.018,-0.037,0.009,-0.014,-0.013,-0.041
-0.011,-0.037,0.025,-0.031,0.006,-0.016
-0.028,-0.049,0.016,-0.029,0.001,-0.023
-0.012,-0.054,0.007,-0.022,-0.01,-0.029
-0.003,-0.055,-0.03,-0.02,-0.008,-0.024
0.016,-0.037,-0.051,-0.017,-0.004,-0.014
0.035,-0.019,-0.069,-0.02,-0.01,-0.023
0.035,-0.016,-0.095,-0.013,-0.025,-0.031
0.035,-0.014,-0.122,-0.001,-0.031,-0.024
0.009,-0.032,-0.112,-0.015,-0.017,-0.01
-0.015,-0.052,-0.103,-0.022,-0.003,0.002
-0.037,-0.087,-0.096,-0.034,0.017,0.018
-0.055,-0.111,-0.093,-0.041,0.022,0.015
-0.065,-0.092,-0.076,-0.04,0.024,0.015
-0.061,-0.085,-0.023,-0.038,0.013,-0.007
-0.027,-0.065,-0.05,-0.016,-0.002,-0.019
0.001,-0.05,-0.057,-0.003,-0.029,-0.086
0.016,-0.049,-0.033,0.003,-0.029,-0.052
0.014,-0.065,-0.011,-0.015,-0.004,-0.042
0.031,-0.047,-0.009,-0.008,-0.007,-0.047
0.069,-0.038,-0.014,-0.009,-0.023,-0.061
0.061,-0.039,-0.006,-0,-0.031,-0.07
0.041,-0.07,0.003,-0.006,-0.025,-0.058
0.019,-0.085,-0.013,-0.021,-0.005,-0.013
-0.003,-0.082,-0.048,-0.031,0.007,0.011
-0.015,-0.083,-0.065,-0.018,-0.011,-0.015
-0.029,-0.081,-0.071,-0.022,-0.009,-0.001
-0.044,-0.089,-0.098,-0.029,0.001,0.01
-0.026,-0.107,-0.118,-0.023,-0.005,-0.001
-0.011,-0.109,-0.123,-0.016,-0.017,-0.028
0.032,-0.079,-0.137,-0.007,-0.02,-0.051
0.079,-0.039,-0.149,0.003,-0.033,-0.066
0.07,-0.036,-0.139,-0.003,-0.02,-0.057
0.05,-0.035,-0.124,-0.005,-0.014,-0.044
0.042,-0.036,-0.1,-0.009,-0.007,-0.04
0.036,-0.06,-0.076,-0.011,-0.007,-0.039
0.023,-0.064,-0.052,-0.014,-0.006,-0.04
0.014,-0.065,0.027,-0.023,-0.004,-0.037
0.009,-0.066,-0,-0.02,0.002,-0.028
0.009,-0.068,-0.004,-0.019,-0.003,-0.038
0.004,-0.072,0.004,-0.02,-0.003,-0.028
0.001,-0.068,0.008,-0.022,-0.003,-0.016
-0.001,-0.072,0.001,-0.02,-0.007,-0.013
-0.001,-0.075,-0.02,-0.02,-0.011,-0.014
-0.004,-0.07,-0.041,-0.02,-0.014,-0.015
-0.006,-0.074,-0.058,-0.019,-0.011,-0.01
0.005,-0.061,-0.083,-0.019,-0.014,-0.011
0.009,-0.068,-0.102,-0.018,-0.015,-0.018
0.015,-0.07,-0.115,-0.018,-0.018,-0.02
0.014,-0.076,-0.115,-0.021,-0.016,-0.025
0.017,-0.073,-0.119,-0.021,-0.016,-0.035
0.015,-0.08,-0.08,-0.022,-0.02,-0.042
0.001,-0.088,-0.097,-0.016,-0.016,-0.029
-0.014,-0.083,-0.094,-0.015,-0.014,-0.024
-0.023,-0.093,-0.07,-0.011,-0.011,-0.019
-0.015,-0.092,-0.037,-0.007,-0.019,-0.034
0.006,-0.072,-0.015,-0.014,-0.016,-0.035
0.012,-0.07,0.057,-0.026,0.008,-0.025
0.015,-0.071,0.004,-0.02,0.004,-0.022
0,-0.092,0.016,-0.022,0.002,-0.025
-0.013,-0.107,0.026,-0.023,0.003,-0.025
-0.019,-0.108,0.035,-0.023,0.004,-0.007
-0.014,-0.105,0.019,-0.027,0.004,-0.011
-0.002,-0.089,-0.001,-0.028,-0.003,-0.016
-0.002,-0.084,-0.026,-0.024,-0.004,-0.009
-0.005,-0.093,-0.055,-0.02,-0.002,0.006
-0.008,-0.106,-0.074,-0.021,-0.007,0.002
0.008,-0.107,-0.086,-0.018,-0.017,-0.016
0.021,-0.101,-0.102,-0.021,-0.024,-0.021
0.011,-0.092,-0.118,-0.024,-0.013,-0.011
0.007,-0.061,-0.119,-0.027,-0.017,-0.01
-0.002,-0.064,-0.113,-0.017,-0.019,-0.012
-0.012,-0.082,-0.104,-0.017,-0.01,-0.012
0.006,-0.071,-0.101,-0.007,-0.019,-0.036
0.004,-0.069,-0.055,-0.016,-0.012,-0.026
0.002,-0.071,-0.02,-0.021,-0.006,-0.036
-0.003,-0.071,-0.006,-0.021,-0.002,-0.022
-0.004,-0.071,-0.029,-0.018,0.003,-0.021
-0.005,-0.072,-0.005,-0.015,-0.008,-0.036
-0.002,-0.07,-0.002,-0.014,-0.009,-0.029
0.001,-0.077,-0.001,-0.013,0.001,-0.014
-0.008,-0.089,-0.001,-0.015,-0.004,-0.009
-0.005,-0.093,-0.004,-0.014,-0.001,0.008
-0.004,-0.095,-0.009,-0.015,-0.001,0.011
0.003,-0.087,-0.044,-0.011,-0.006,0.012
0.001,-0.097,-0.062,-0.019,0.001,0.028
0.009,-0.082,-0.085,-0.012,-0.018,0.015
0.02,-0.059,-0.109,-0.017,-0.006,0.01
0.027,-0.065,-0.122,-0.016,-0.025,-0.023
0.019,-0.09,-0.128,-0.019,-0.019,-0.013
0.01,-0.103,-0.114,-0.028,-0,-0.002
0.02,-0.089,-0.121,-0.009,-0.021,-0.05
0.041,-0.07,-0.127,0.008,-0.044,-0.073
0.055,-0.064,-0.124,0.004,-0.058,-0.077
0.055,-0.039,-0.085,-0,-0.034,-0.053
0.058,-0.025,-0.022,-0.007,-0.031,-0.055
0.045,0.014,-0.046,-0.012,-0.008,-0.032
0.019,-0.003,-0.01,-0.026,0.007,-0.032
-0.01,-0.056,-0.009,-0.028,0.011,-0.03
-0.019,-0.101,0.014,-0.029,0.013,-0.027
-0.044,-0.15,0.005,-0.027,0.01,-0.022
-0.047,-0.147,-0.001,-0.028,0.008,-0.008
-0.027,-0.128,-0.008,-0.023,-0.002,-0.011
-0.017,-0.117,-0.019,-0.022,-0.005,-0.012
-0.007,-0.102,-0.046,-0.02,-0.009,-0.02
0,-0.093,-0.07,-0.016,-0.014,-0.019
-0.005,-0.098,-0.083,-0.022,-0.01,0.008
0.001,-0.11,-0.096,-0.025,0.009,0.03
0.014,-0.113,-0.133,-0.016,-0.007,0.001
0.017,-0.102,-0.142,-0.012,-0.017,-0.005
0.017,-0.098,-0.139,-0.007,-0.016,-0.013
0.027,-0.09,-0.142,0.003,-0.025,-0.029
0.033,-0.094,-0.136,-0.002,-0.014,-0.028
0.029,-0.085,-0.104,-0.009,-0.013,-0.039
0.004,-0.098,-0.081,-0.011,-0.012,-0.015
0.01,-0.105,-0.058,-0.007,-0.024,-0.026
0.005,-0.11,-0.045,-0.013,-0.006,-0.003
-0.019,-0.143,0.042,-0.04,0.009,0.005
-0.036,-0.153,-0.001,-0.035,0.022,0.016
-0.036,-0.162,0.007,-0.032,0.017,-0.001
-0.018,-0.153,-0.006,-0.031,0.007,-0.025
-0.002,-0.147,-0.014,-0.028,0.003,-0.04
0.011,-0.15,-0.019,-0.025,-0.001,-0.044
0.021,-0.134,-0.028,-0.017,-0.012,-0.045
0.029,-0.127,-0.07,-0.005,-0.035,-0.04
0.014,-0.139,-0.08,-0.006,-0.029,-0.024
0.007,-0.139,-0.096,-0.013,-0.016,-0.014
0.002,-0.132,-0.124,-0.009,-0.017,-0.006
-0.001,-0.131,-0.154,-0.01,-0.014,-0.006
0.011,-0.121,-0.155,-0.007,-0.025,-0.022
0.019,-0.118,-0.145,-0.009,-0.021,-0.026
0.016,-0.121,-0.145,-0.011,-0.016,-0.032
0.003,-0.139,-0.135,-0.013,-0.019,-0.036
-0.001,-0.143,-0.124,-0.017,-0.01,-0.032
0.006,-0.14,-0.101,-0.018,-0.007,-0.024
0.013,-0.14,-0.065,-0.02,-0.007,-0.037
0.023,-0.131,-0.075,-0.012,-0.004,-0.019
0.016,-0.145,-0.047,-0.025,0.013,0.003
-0.002,-0.153,-0.027,-0.027,0.024,0.008
-0.014,-0.159,-0.006,-0.028,0.015,-0.004
-0.018,-0.165,-0.011,-0.025,0.011,-0.002
-0.03,-0.168,-0.03,-0.03,0.017,0.002
-0.029,-0.174,-0.005,-0.029,0.002,-0.026
-0.013,-0.162,-0.026,-0.029,-0.008,-0.041
0.016,-0.126,-0.066,-0.012,-0.032,-0.056
0.004,-0.124,-0.089,-0.014,-0.022,-0.034
0.03,-0.102,-0.111,-0,-0.04,-0.056
0.053,-0.107,-0.121,-0.001,-0.031,-0.03
0.051,-0.117,-0.142,-0.008,-0.016,-0.018
0.032,-0.117,-0.15,-0.016,-0.012,-0.009
0.021,-0.121,-0.15,-0.017,-0.011,-0.013
0.004,-0.127,-0.137,-0.015,-0.009,-0.012
-0.004,-0.124,-0.07,-0.024,-0.005,-0.021
-0.004,-0.121,-0.13,-0.018,-0.01,-0.03
-0.008,-0.118,-0.067,-0.014,-0.02,-0.052
-0.003,-0.115,-0.04,-0.01,-0.016,-0.052
0,-0.119,-0.038,-0.015,-0.003,-0.041
0.008,-0.106,0.018,-0.033,0.008,-0.032
0.004,-0.117,-0.007,-0.021,0.014,-0.029
0.001,-0.128,-0.006,-0.023,0.002,-0.033
0.001,-0.126,-0.002,-0.024,0.006,-0.03
0.009,-0.128,-0.019,-0.024,-0,-0.045
0.014,-0.123,-0.021,-0.022,-0.006,-0.049
0.01,-0.11,-0.019,-0.019,-0.007,-0.041
0.01,-0.099,-0.05,-0.015,-0.018,-0.045
0.002,-0.091,-0.083,-0.014,-0.022,-0.033
-0.01,-0.089,-0.093,-0.011,-0.024,-0.022
-0.013,-0.079,-0.12,-0.007,-0.029,-0.024
-0.003,-0.081,-0.15,-0.003,-0.035,-0.036
0.011,-0.094,-0.155,-0.001,-0.043,-0.047
0.023,-0.076,-0.142,-0.016,-0.016,-0.027
0.03,-0.068,-0.144,-0.018,-0.01,-0.038
0.022,-0.082,-0.134,-0.021,-0.002,-0.042
0.009,-0.108,-0.127,-0.023,-0.002,-0.047
-0.006,-0.131,-0.05,-0.032,0.003,-0.06
0.008,-0.106,-0.034,-0.025,0.001,-0.063
0.014,-0.094,-0.058,-0.016,-0.001,-0.049
0.008,-0.12,0.033,-0.037,0.005,-0.062
0.006,-0.119,-0.028,-0.017,0.003,-0.043
0.001,-0.129,-0.015,-0.014,-0.011,-0.043
0.001,-0.122,-0.021,-0.013,-0.004,-0.037
0.002,-0.121,-0.036,-0.018,-0.004,-0.037
0.007,-0.113,-0.042,-0.017,-0.007,-0.032
0.003,-0.107,-0.051,-0.019,-0.007,-0.03
0.009,-0.101,-0.087,-0.015,-0.014,-0.032
0.004,-0.088,-0.118,-0.019,-0.015,-0.038
-0.003,-0.071,-0.122,-0.022,-0.012,-0.038
-0.007,-0.084,-0.155,-0.011,-0.028,-0.048
-0.004,-0.092,-0.178,-0.003,-0.029,-0.034
-0.007,-0.098,-0.17,-0.007,-0.029,-0.037
-0.01,-0.102,-0.17,-0.006,-0.026,-0.036
-0.01,-0.096,-0.172,-0.005,-0.025,-0.037
0.011,-0.067,-0.167,-0.008,-0.019,-0.043
0.013,-0.048,-0.149,-0.018,-0.004,-0.042
0.036,-0.02,-0.136,-0.013,-0.007,-0.059
0.032,-0.036,-0.063,-0.013,-0.016,-0.078
0.006,-0.085,-0.083,-0.01,-0.011,-0.043
-0.017,-0.114,-0.052,-0.018,0.002,-0.028
-0.025,-0.114,-0.05,-0.022,0.004,-0.021
-0.023,-0.109,-0.044,-0.027,0.001,-0.029
-0.033,-0.126,-0.033,-0.027,0.006,-0.031
-0.046,-0.153,-0.026,-0.039,0.015,-0.014
-0.055,-0.164,-0.033,-0.047,0.034,0.008
-0.054,-0.145,-0.045,-0.037,0.027,0.007
-0.042,-0.13,-0.078,-0.029,0.009,-0.016
-0.03,-0.114,-0.103,-0.028,-0,-0.023
-0.01,-0.111,-0.109,-0.018,-0.016,-0.018
0.049,-0.079,-0.133,0.002,-0.047,-0.06
0.071,-0.056,-0.164,0.002,-0.04,-0.065
0.058,-0.067,-0.154,-0.003,-0.036,-0.068
0.05,-0.071,-0.158,-0.005,-0.034,-0.075
0.03,-0.083,-0.157,-0.016,-0.014,-0.047
0.023,-0.081,-0.139,-0.021,-0.007,-0.048
0.021,-0.083,-0.141,-0.016,-0.014,-0.053
0.02,-0.079,-0.119,-0.013,-0.015,-0.054
0.014,-0.079,-0.08,-0.013,-0.014,-0.062
0.012,-0.082,-0.083,-0.014,-0.009,-0.059
0.011,-0.09,-0.053,-0.009,-0.013,-0.065
0.01,-0.087,-0.039,-0.004,-0.018,-0.06
0.002,-0.091,-0.038,-0.004,-0.015,-0.054
-0.014,-0.109,-0.035,-0.011,-0.011,-0.048
-0.011,-0.112,-0.035,-0.013,-0.025,-0.065
0.011,-0.097,-0.028,-0.016,-0.011,-0.056
0.036,-0.069,-0.03,-0.028,0.008,-0.035
0.031,-0.065,-0.065,-0.023,-0.001,-0.042
0.014,-0.074,-0.075,-0.023,0.001,-0.037
-0.01,-0.081,-0.082,-0.027,0.006,-0.025
-0.014,-0.086,-0.114,-0.026,-0,-0.026
-0.021,-0.095,-0.144,-0.028,-0.006,-0.028
-0.018,-0.095,-0.143,-0.026,-0.008,-0.022
-0.024,-0.106,-0.139,-0.022,-0.01,-0.024
-0.036,-0.114,-0.135,-0.018,-0.007,-0.029
-0.028,-0.142,-0.067,-0.031,0.001,-0.032
-0.028,-0.145,-0.12,-0.026,0.01,-0.006
-0.038,-0.137,-0.065,-0.027,0.012,-0.013
-0.047,-0.118,-0.074,-0.023,0.013,0
-0.012,-0.091,-0.079,-0.012,-0.016,-0.037
0.009,-0.08,-0.056,-0.01,-0.015,-0.045
0.013,-0.06,-0.047,-0.008,-0.022,-0.077
0.016,-0.066,-0.03,-0.003,-0.024,-0.077
0.031,-0.06,-0.04,-0.005,-0.02,-0.084
0.05,-0.051,-0.032,-0.012,-0.007,-0.079
0.081,-0.029,-0.055,0.001,-0.028,-0.092
0.077,-0.034,-0.066,0.003,-0.03,-0.089
0.046,-0.07,-0.087,-0.005,-0.018,-0.059
0.025,-0.082,-0.09,-0.016,-0.011,-0.044
0.025,-0.086,-0.093,-0.019,-0.004,-0.041
0.038,-0.081,-0.118,-0.008,-0.021,-0.07
0.032,-0.071,-0.145,-0.008,-0.024,-0.065
0.022,-0.081,-0.145,-0.015,-0.021,-0.067
0.022,-0.089,-0.154,-0.008,-0.026,-0.072
0.009,-0.083,-0.148,-0.009,-0.026,-0.062
-0.012,-0.094,-0.085,-0.018,-0.017,-0.079
-0.015,-0.066,-0.126,-0.007,-0.02,-0.06
-0.008,-0.073,-0.073,-0.015,-0.015,-0.063
-0.005,-0.081,-0.077,-0.012,-0.007,-0.057
0.004,-0.085,-0.069,-0.02,0.007,-0.052
0.006,-0.098,-0.035,-0.025,0.016,-0.049
0.009,-0.077,-0.022,-0.018,0.007,-0.059
0.009,-0.074,-0.014,-0.011,-0.003,-0.061
0.002,-0.088,-0.016,-0.015,-0,-0.05
-0.001,-0.102,-0.006,-0.021,0.005,-0.047
0.004,-0.095,-0.02,-0.023,-0.005,-0.05
-0.003,-0.1,-0.021,-0.021,-0.008,-0.045
-0.004,-0.102,-0.05,-0.018,-0.014,-0.055
-0.015,-0.118,-0.068,-0.019,-0.015,-0.039
-0.017,-0.103,-0.093,-0.017,-0.019,-0.04
-0.018,-0.09,-0.127,-0.012,-0.02,-0.046
-0.008,-0.079,-0.137,-0.007,-0.024,-0.051
0.005,-0.062,-0.138,-0.012,-0.014,-0.04
0.021,-0.071,-0.12,-0.02,-0.002,-0.037
0.015,-0.072,-0.085,-0.026,0.002,-0.043
0.016,-0.08,-0.124,-0.021,0.005,-0.038
0.007,-0.091,-0.114,-0.02,0.007,-0.039
0.001,-0.091,-0.088,-0.02,0.006,-0.041
-0.009,-0.103,-0.07,-0.012,0.001,-0.042
-0.011,-0.12,-0.047,-0.015,-0.005,-0.051
-0.033,-0.128,-0.047,-0.016,-0.002,-0.04
-0.026,-0.108,0.017,-0.007,-0.025,-0.069
-0.009,-0.107,-0.011,0.002,-0.028,-0.055
-0.018,-0.115,-0.006,-0.025,0.007,-0.02
-0.015,-0.091,-0.025,-0.023,0.007,-0.025
0.003,-0.085,-0.019,-0.019,-0.003,-0.028
0.007,-0.091,-0.018,-0.018,-0.012,-0.056
-0.009,-0.105,-0.041,-0.017,-0.017,-0.065
-0.009,-0.089,-0.085,-0.016,-0.014,-0.065
-0.002,-0.081,-0.092,-0.016,-0.013,-0.049
0.013,-0.074,-0.114,-0.015,-0.008,-0.035
0.044,-0.062,-0.142,-0.019,-0.005,-0.024
0.037,-0.057,-0.145,-0.019,-0.014,-0.047
0.023,-0.067,-0.127,-0.013,-0.023,-0.064
0.025,-0.09,-0.137,0,-0.037,-0.072
0.02,-0.095,-0.139,-0.003,-0.018,-0.05
0.028,-0.074,-0.133,0.002,-0.023,-0.065
0.032,-0.065,-0.105,0.001,-0.024,-0.063
0.026,-0.064,-0.048,-0.003,-0.025,-0.081
0.022,-0.061,-0.04,-0.002,-0.027,-0.08
0.004,-0.071,-0.016,-0.019,-0.007,-0.049
-0.032,-0.114,0.003,-0.035,0.013,-0.027
-0.059,-0.139,0.014,-0.032,0.019,-0.031
-0.049,-0.135,0.01,-0.036,0.008,-0.047
-0.032,-0.111,-0.009,-0.04,0.018,-0.037
-0.011,-0.082,-0.005,-0.032,0.008,-0.049
0.01,-0.041,-0.028,-0.017,-0.005,-0.058
0.014,-0.046,-0.058,-0.014,-0.008,-0.047
0.006,-0.066,-0.066,-0.024,-0.006,-0.032
-0.005,-0.08,-0.083,-0.027,0.002,-0.023
-0.017,-0.09,-0.105,-0.024,-0.005,-0.033
-0.008,-0.084,-0.146,-0.013,-0.015,-0.042
0.009,-0.084,-0.156,-0.009,-0.03,-0.063
0.042,-0.063,-0.128,-0.005,-0.027,-0.072
0.057,-0.047,-0.134,-0.007,-0.024,-0.084
0.053,-0.047,-0.096,-0.012,-0.026,-0.132
0.048,-0.041,-0.159,-0.004,-0.031,-0.093
0.037,-0.047,-0.046,-0.02,-0.013,-0.103
0.028,-0.05,-0.078,-0.003,-0.013,-0.075
0.018,-0.066,-0.076,-0.006,-0.007,-0.065
0.006,-0.072,-0.059,-0.011,-0.004,-0.065
0,-0.082,-0.046,-0.011,-0.005,-0.063
-0,-0.088,-0.019,-0.01,-0.005,-0.064
0.001,-0.086,-0.024,-0.025,0.002,-0.053
0.007,-0.082,-0.03,-0.017,0.003,-0.053
0.006,-0.077,-0.025,-0.017,-0.016,-0.057
0.007,-0.071,-0.031,-0.014,-0.013,-0.056
0.01,-0.063,-0.078,-0.013,-0.018,-0.063
0.004,-0.066,-0.119,-0.013,-0.018,-0.052
0,-0.071,-0.102,-0.018,-0.014,-0.047
-0.003,-0.068,-0.13,-0.018,-0.013,-0.043
0.005,-0.063,-0.151,-0.014,-0.016,-0.05
0.003,-0.072,-0.167,-0.017,-0.017,-0.054
0.002,-0.079,-0.154,-0.022,-0.013,-0.049
-0.001,-0.082,-0.147,-0.015,-0.016,-0.055
-0,-0.095,-0.087,-0.019,-0.013,-0.067
0,-0.097,-0.134,-0.012,-0.014,-0.059
0,-0.088,-0.08,-0.014,-0.014,-0.07
0.001,-0.095,-0.066,-0.015,-0.009,-0.057
0,-0.087,-0.066,-0.014,0.001,-0.049
-0.009,-0.098,0.004,-0.023,0.003,-0.058
-0.017,-0.101,-0.029,-0.022,0.011,-0.045
0.001,-0.082,-0.016,-0.017,0.002,-0.062
0.004,-0.087,-0.017,-0.016,-0.002,-0.058
-0.008,-0.093,-0.013,-0.019,0.002,-0.047
-0.015,-0.106,-0.016,-0.032,0.004,-0.04
-0.02,-0.118,-0.021,-0.018,0.001,-0.036
-0.017,-0.116,-0.063,-0.015,-0.022,-0.042
-0.015,-0.114,-0.095,-0.014,-0.018,-0.033
-0.017,-0.102,-0.093,-0.019,-0.016,-0.04
0.011,-0.048,-0.136,-0.004,-0.039,-0.056
0.024,-0.031,-0.17,-0.007,-0.025,-0.043
0.019,-0.05,-0.155,-0.016,-0.012,-0.04
0.012,-0.054,-0.163,-0.014,-0.011,-0.042
0.008,-0.065,-0.156,-0.008,-0.017,-0.047
0.01,-0.074,-0.153,-0.006,-0.021,-0.051
0.011,-0.081,-0.14,-0.004,-0.016,-0.052
0.017,-0.071,-0.094,-0.007,-0.018,-0.069
0.028,-0.046,-0.092,-0.003,-0.018,-0.075
0.02,-0.069,-0.048,-0.013,-0.015,-0.086
0.008,-0.071,-0.051,-0.021,0.001,-0.059
-0.02,-0.093,-0.025,-0.032,0.022,-0.043
-0.013,-0.086,-0.022,-0.026,0.022,-0.042
0.018,-0.061,-0.03,-0.021,0.012,-0.055
0.02,-0.043,-0.034,-0.021,0.006,-0.051
0.011,-0.04,-0.041,-0.021,0.008,-0.035
-0.004,-0.053,-0.041,-0.025,0.013,-0.028
-0.016,-0.067,-0.086,-0.035,0.004,-0.021
-0.027,-0.077,-0.104,-0.025,-0.015,-0.036
-0.03,-0.093,-0.112,-0.02,-0.026,-0.022
-0.035,-0.126,-0.135,-0.023,-0.007,-0.005
-0.02,-0.123,-0.157,-0.023,-0.004,-0.009
-0,-0.106,-0.178,-0.021,-0.01,-0.024
0.018,-0.066,-0.18,-0.02,-0.007,-0.04
0.049,-0.043,-0.187,-0.01,-0.015,-0.053
0.063,-0.044,-0.179,0.005,-0.042,-0.09
0.045,-0.057,-0.172,-0.003,-0.03,-0.064
0.015,-0.075,-0.13,-0.005,-0.01,-0.037
0.006,-0.078,-0.084,-0.015,-0.008,-0.039
0.008,-0.065,-0.096,-0.011,-0.003,-0.025
0.007,-0.073,-0.069,-0.018,0.004,-0.015
0.005,-0.079,-0.059,-0.017,0.011,-0.02
0.003,-0.077,-0.063,-0.017,-0,-0.039
0.01,-0.075,-0.058,-0.013,-0.012,-0.056
0.009,-0.08,-0.043,-0.021,-0.007,-0.048
0.008,-0.082,-0.036,-0.021,-0.007,-0.058
0.01,-0.081,-0.052,-0.019,-0.015,-0.053
0.012,-0.078,-0.079,-0.013,-0.021,-0.05
0.011,-0.07,-0.093,-0.021,-0.023,-0.042
0.008,-0.073,-0.104,-0.013,-0.018,-0.034
0.008,-0.07,-0.117,-0.013,-0.02,-0.028
0.014,-0.064,-0.15,-0.013,-0.02,-0.034
0.014,-0.068,-0.149,-0.016,-0.019,-0.04
0.011,-0.087,-0.145,-0.013,-0.016,-0.035
0.015,-0.078,-0.149,-0.011,-0.017,-0.037
0.017,-0.069,0.145,-0.017,-0.02,-0.095
0.016,-0.07,-0.123,-0.016,-0.014,-0.043
0.005,-0.087,-0.065,-0.018,-0.006,-0.06
0.009,-0.072,-0.064,-0.014,-0.007,-0.051
0.009,-0.077,-0.051,-0.013,-0.006,-0.053
0.007,-0.079,-0.022,-0.016,-0.007,-0.049
0.004,-0.077,0.004,-0.017,-0.003,-0.047
0.005,-0.069,0.01,-0.014,-0.003,-0.049
0.002,-0.076,0.019,-0.016,-0.005,-0.049
-0.007,-0.079,0.031,-0.021,-0.004,-0.044
-0.005,-0.082,0.04,-0.024,0.003,-0.031
-0.001,-0.076,0.034,-0.024,0.001,-0.032
0,-0.075,0.004,-0.019,-0.006,-0.027
-0.001,-0.069,-0,-0.021,-0.007,-0.024
0.004,-0.067,-0.016,-0.017,-0.006,-0.024
0.012,-0.067,-0.041,-0.017,-0.011,-0.026
0.014,-0.062,-0.063,-0.013,-0.019,-0.033
0.011,-0.063,-0.059,-0.016,-0.016,-0.031
0.006,-0.069,-0.056,-0.016,-0.015,-0.032
0.006,-0.068,-0.054,-0.014,-0.018,-0.04
0.013,-0.065,-0.06,-0.013,-0.016,-0.075
0.015,-0.063,-0.032,-0.012,-0.015,-0.046
0.011,-0.076,0.028,-0.012,-0.012,-0.056
0.012,-0.07,0.012,-0.006,-0.008,-0.041
0.006,-0.071,0.033,-0.01,-0.004,-0.043
-0.002,-0.075,0.073,-0.016,0.001,-0.038
-0.004,-0.082,0.086,-0.016,0.002,-0.041
-0.003,-0.083,0.094,-0.012,-0.002,-0.041
-0.004,-0.083,0.089,-0.014,-0.003,-0.04
-0.003,-0.086,0.09,-0.018,-0,-0.034
-0.005,-0.082,0.093,-0.018,-0.005,-0.034
-0.004,-0.083,0.078,-0.017,-0.006,-0.032
-0.001,-0.078,0.038,-0.013,-0.015,-0.03
-0.001,-0.082,0.017,-0.022,-0.014,-0.025
-0.001,-0.08,-0.011,-0.012,-0.016,-0.021
0.004,-0.075,-0.039,-0.009,-0.018,-0.025
0.009,-0.073,-0.065,-0.008,-0.022,-0.029
0.008,-0.079,-0.066,-0.01,-0.021,-0.031
0.006,-0.076,-0.068,-0.012,-0.017,-0.033
0.007,-0.068,-0.071,-0.008,-0.019,-0.041
0.009,-0.074,-0.076,-0.007,-0.016,-0.038
0.009,-0.083,-0.053,-0.01,-0.015,-0.041
0.006,-0.079,-0.038,-0.012,-0.008,-0.037
0.008,-0.076,-0.022,-0.006,-0.01,-0.035
0.005,-0.083,-0.011,-0.007,-0.01,-0.039
0.004,-0.088,0.018,-0.014,-0.006,-0.045
-0.002,-0.092,0.054,-0.015,-0.003,-0.042
-0.002,-0.089,0.049,-0.008,-0.006,-0.041
-0.002,-0.097,0.052,-0.012,-0.009,-0.041
-0.002,-0.106,0.032,-0.017,-0.008,-0.034
-0.006,-0.092,0.033,-0.019,-0.007,-0.031
-0.002,-0.088,0.026,-0.017,-0.011,-0.031
0,-0.085,0,-0.016,-0.015,-0.029
0.003,-0.079,-0.013,-0.016,-0.014,-0.023
0,-0.078,-0.034,-0.026,-0.015,-0.022
0.004,-0.072,-0.06,-0.013,-0.014,-0.021
0.012,-0.07,-0.085,-0.014,-0.021,-0.029
0.01,-0.067,-0.084,-0.021,-0.02,-0.027
0.01,-0.066,-0.087,-0.017,-0.016,-0.032
0.008,-0.064,-0.074,-0.01,-0.017,-0.06
0.01,-0.07,-0.07,-0.009,-0.017,-0.039
0.009,-0.077,-0.053,-0.009,-0.019,-0.042
0.008,-0.076,-0.025,-0.007,-0.014,-0.043
0.011,-0.071,0.035,-0.009,-0.016,-0.066
0.009,-0.076,0.038,-0.013,-0.013,-0.07
0.004,-0.089,0.145,-0.024,-0.012,-0.098
0.015,-0.05,0.044,-0.005,-0.016,-0.05
0.017,-0.047,0.068,-0.004,-0.016,-0.056
0.016,-0.04,0.093,-0.009,-0.015,-0.059
0.02,-0.036,0.093,-0.014,-0.012,-0.061
0.011,-0.055,0.1,-0.017,-0.011,-0.055
-0.003,-0.084,0.094,-0.022,-0.003,-0.039
-0.024,-0.124,0.072,-0.033,0.005,-0.022
-0.035,-0.132,0.05,-0.035,0.002,-0.016
-0.015,-0.101,0.028,-0.024,-0.009,-0.025
0.005,-0.068,0.001,-0.013,-0.018,-0.039
0.019,-0.057,-0.03,-0.011,-0.023,-0.044
0.022,-0.052,-0.057,-0.008,-0.024,-0.043
0.008,-0.045,-0.04,-0.009,-0.017,-0.041
0.013,-0.033,-0.041,-0.003,-0.021,-0.041
0.016,-0.024,-0.039,-0.002,-0.024,-0.045
0.007,-0.041,-0.032,-0.004,-0.021,-0.051
-0.003,-0.063,0.016,-0.008,-0.02,-0.055
-0.013,-0.104,0.028,-0.012,-0.011,-0.048
-0.033,-0.13,0.031,-0.019,0.004,-0.025
-0.036,-0.14,0.086,-0.028,0.009,-0.037
-0.028,-0.134,0.064,-0.028,0.015,-0.038
-0.015,-0.119,0.061,-0.021,0.009,-0.053
-0.016,-0.129,0.064,-0.028,0.01,-0.055
-0.007,-0.116,0.063,-0.026,0.007,-0.052
0.003,-0.083,0.06,-0.023,-0.003,-0.059
0.01,-0.077,0.047,-0.02,-0.003,-0.057
0.011,-0.074,0.006,-0.015,-0.017,-0.053
0.005,-0.079,-0.023,-0.019,-0.013,-0.045
0.003,-0.078,-0.041,-0.017,-0.013,-0.05
0.001,-0.082,-0.055,-0.019,-0.011,-0.046
0.001,-0.077,-0.082,-0.014,-0.016,-0.052
0.009,-0.071,-0.103,-0.007,-0.022,-0.054
0.015,-0.063,-0.096,-0.005,-0.025,-0.063
0.014,-0.067,-0.09,-0.003,-0.023,-0.07
0.005,-0.079,-0.09,-0.005,-0.019,-0.064
0,-0.086,-0.083,-0.011,-0.014,-0.067
-0.005,-0.092,-0.049,-0.017,-0.007,-0.122
-0.006,-0.093,-0.028,-0.015,-0.002,-0.063
-0.007,-0.095,-0.021,-0.014,0.002,-0.063
-0.003,-0.098,0.007,-0.014,0.004,-0.068
-0.008,-0.102,0.018,-0.019,0.002,-0.069
-0.002,-0.087,0.014,-0.015,0.001,-0.074
-0.004,-0.085,0.016,-0.018,-0.001,-0.08
-0.013,-0.093,0.015,-0.018,-0.004,-0.082
-0.017,-0.093,0.015,-0.018,-0.005,-0.078
-0.006,-0.089,0.001,-0.022,-0.007,-0.076
0.001,-0.083,-0.02,-0.013,-0.011,-0.077
0,-0.079,-0.047,-0.014,-0.023,-0.074
0.006,-0.076,-0.058,-0.016,-0.014,-0.064
0.014,-0.067,-0.081,-0.01,-0.013,-0.074
0.019,-0.065,-0.102,-0.006,-0.014,-0.073
0.018,-0.071,-0.12,-0.009,-0.018,-0.076
0.017,-0.08,-0.113,-0.006,-0.023,-0.092
0.02,-0.087,-0.112,0.002,-0.031,-0.1
0.015,-0.102,-0.028,-0.007,-0.033,-0.123
0.023,-0.095,-0.097,0.001,-0.029,-0.115
0.027,-0.085,-0.041,-0.006,-0.02,-0.116
0.019,-0.063,-0.027,-0.017,-0.004,-0.107
0.004,-0.049,-0.024,-0.021,0.01,-0.092
-0.016,-0.074,0.059,-0.034,0.016,-0.097
-0.03,-0.089,0.015,-0.029,0.017,-0.09
-0.02,-0.093,0.019,-0.022,0.01,-0.101
-0.023,-0.106,0.03,-0.028,0.009,-0.099
-0.022,-0.112,0.028,-0.025,0.009,-0.104
-0.022,-0.108,0.031,-0.022,-0.001,-0.112
-0.009,-0.092,0.026,-0.018,-0.01,-0.112
0.003,-0.076,-0.012,-0.01,-0.02,-0.113
0.009,-0.074,-0.045,-0.012,-0.018,-0.11
0.01,-0.065,-0.05,-0.007,-0.023,-0.109
0.006,-0.075,-0.072,-0.009,-0.028,-0.101
-0.003,-0.087,-0.093,-0.006,-0.028,-0.098
-0.011,-0.094,-0.102,-0.011,-0.028,-0.102
-0.006,-0.088,-0.096,-0.013,-0.027,-0.113
-0.01,-0.095,-0.088,-0.017,-0.014,-0.106
-0.014,-0.116,-0.092,-0.025,0.002,-0.103
-0.006,-0.12,-0.079,-0.024,0.006,-0.113
0.019,-0.065,-0.054,-0.012,-0.004,-0.123
0.038,-0.039,-0.015,-0.005,-0.009,-0.139
0.028,-0.049,-0.031,-0.003,-0.009,-0.129
0.002,-0.089,-0.004,-0.011,-0.002,-0.12
-0.006,-0.092,0.012,-0.016,-0.001,-0.125
-0.011,-0.097,0.026,-0.013,-0.001,-0.128
-0.015,-0.095,0.025,-0.021,0.011,-0.11
-0.014,-0.079,0.021,-0.022,0.011,-0.104
-0.01,-0.069,0.029,-0.024,0.009,-0.098
0.003,-0.071,0.018,-0.022,0.004,-0.091
0.009,-0.08,-0.015,-0.021,-0.007,-0.095
0.003,-0.079,-0.043,-0.016,-0.012,-0.099
0.003,-0.081,-0.05,-0.015,-0.015,-0.104
0.006,-0.077,-0.078,-0.015,-0.013,-0.107
0,-0.085,-0.089,-0.016,-0.009,-0.107
0.008,-0.083,-0.113,-0.01,-0.016,-0.114
0.021,-0.075,-0.114,-0.005,-0.025,-0.134
0.031,-0.072,-0.107,-0,-0.02,-0.126
0.03,-0.076,-0.099,-0.004,-0.018,-0.124
0.021,-0.077,-0.091,-0.01,-0.011,-0.124
0.011,-0.085,-0.052,-0.008,-0.011,-0.12
0.008,-0.088,-0.033,-0.005,-0.01,-0.126
0.014,-0.088,-0.025,-0.001,-0.01,-0.132
0.008,-0.093,0.014,-0.008,-0.006,-0.128
0.008,-0.09,0.034,-0.013,0.007,-0.146
0.001,-0.078,0.036,-0.013,0.004,-0.125
-0.004,-0.082,0.039,-0.016,0.007,-0.124
-0.011,-0.091,0.03,-0.018,0.004,-0.119
-0.017,-0.093,0.039,-0.018,-0.001,-0.112
-0.014,-0.086,0.021,-0.015,-0.001,-0.103
-0.001,-0.076,0.004,-0.011,-0.006,-0.108
0.001,-0.074,-0.012,-0.01,-0.007,-0.101
0.002,-0.07,-0.025,-0.023,-0.004,-0.096
-0.003,-0.074,-0.054,-0.015,-0.009,-0.099
-0.006,-0.094,-0.067,-0.016,-0.01,-0.103
-0.008,-0.093,-0.083,-0.012,-0.018,-0.123
-0.006,-0.084,-0.07,-0.008,-0.025,-0.134
0,-0.081,-0.071,-0.001,-0.026,-0.133
0.011,-0.081,-0.073,-0.001,-0.024,-0.143
0.022,-0.07,-0.065,0.005,-0.033,-0.161
0.011,-0.072,-0.027,-0.003,-0.023,-0.153
0.009,-0.079,-0.009,-0.007,-0.007,-0.14
0.003,-0.084,-0.004,-0.016,0.005,-0.193
-0.001,-0.093,0.031,-0.021,0.008,-0.134
-0.005,-0.09,0.064,-0.021,0.006,-0.139
-0,-0.086,0.055,-0.012,0.004,-0.141
0.006,-0.086,0.059,-0.01,-0,-0.149
0.003,-0.086,0.05,-0.012,-0.008,-0.146
-0.002,-0.08,0.059,-0.014,-0.006,-0.141
0.001,-0.081,0.052,-0.012,-0.007,-0.141
0.004,-0.073,0.017,-0.007,-0.014,-0.139
0.006,-0.064,-0.015,-0.011,-0.012,-0.137
0.006,-0.067,-0.016,-0.014,-0.017,-0.135
-0.001,-0.085,-0.026,-0.018,-0.009,-0.129
-0.01,-0.096,-0.048,-0.02,-0.006,-0.135
-0.008,-0.09,-0.077,-0.019,-0.006,-0.129
0,-0.071,-0.061,-0.013,-0.012,-0.143
0.015,-0.058,-0.063,-0.006,-0.018,-0.157
0.018,-0.059,-0.055,-0.002,-0.018,-0.159
0.016,-0.061,-0.044,-0.004,-0.018,-0.162
0.01,-0.072,-0.009,-0.004,-0.016,-0.166
0.008,-0.097,0.061,-0.013,-0.019,-0.201
0.004,-0.095,0.009,-0.004,-0.012,-0.178
-0.001,-0.11,0.036,-0.01,-0.009,-0.171
-0.005,-0.103,0.076,-0.017,0.002,-0.167
-0.001,-0.092,0.075,-0.017,0.008,-0.167
-0.002,-0.083,0.085,-0.017,0.005,-0.17
-0.008,-0.078,0.077,-0.023,0.006,-0.162
-0.013,-0.08,0.067,-0.026,0.006,-0.161
-0.007,-0.072,0.054,-0.026,0.004,-0.165
-0.007,-0.084,0.043,-0.027,0.001,-0.161
-0.015,-0.097,0.025,-0.025,-0,-0.154
-0.005,-0.095,0.01,-0.022,-0.013,-0.162
0.007,-0.073,-0.011,-0.012,-0.019,-0.166
0.01,-0.071,-0.029,-0.014,-0.02,-0.181
0.009,-0.078,-0.05,-0.018,-0.016,-0.176
-0.007,-0.083,-0.042,-0.02,-0.006,-0.165
-0.005,-0.08,-0.044,-0.017,-0.009,-0.172
-0.002,-0.079,-0.045,-0.012,-0.011,-0.172
0.003,-0.077,-0.038,-0.011,-0.015,-0.179
-0.001,-0.088,0.016,-0.02,-0.001,-0.205
-0.001,-0.08,0.028,-0.014,-0.006,-0.179
-0.005,-0.076,0.03,-0.007,-0.003,-0.177
-0.002,-0.075,0.037,-0.011,-0.007,-0.181
-0.001,-0.077,0.063,-0.014,-0.001,-0.178
0.003,-0.073,0.079,-0.015,-0.004,-0.177
-0.003,-0.081,0.084,-0.014,-0,-0.176
-0.005,-0.087,0.085,-0.014,-0.001,-0.17
-0.005,-0.087,0.088,-0.016,-0.004,-0.165
-0.009,-0.092,0.085,-0.02,-0.003,-0.158
-0.001,-0.083,0.055,-0.017,-0.009,-0.16
0.006,-0.078,0.029,-0.016,-0.017,-0.161
0.006,-0.074,0.022,-0.016,-0.017,-0.159
0.005,-0.067,0.008,-0.014,-0.02,-0.154
0.004,-0.065,-0.016,-0.01,-0.021,-0.165
0.01,-0.066,-0.031,-0.012,-0.019,-0.162
0.005,-0.067,-0.022,-0.015,-0.016,-0.164
0.005,-0.067,-0.023,-0.011,-0.016,-0.168
0.006,-0.065,-0.031,-0.013,-0.015,-0.163
0.006,-0.067,-0.022,-0.009,-0.015,-0.162
0.005,-0.075,0.007,-0.01,-0.015,-0.159
0.007,-0.083,0.019,-0.009,-0.01,-0.156
0.009,-0.082,0.043,-0.01,-0.006,-0.152
0.002,-0.09,0.113,-0.016,-0.007,-0.173
0.003,-0.081,0.091,-0.013,-0.003,-0.146
0,-0.083,0.106,-0.016,0,-0.142
-0.003,-0.088,0.108,-0.016,0,-0.136
-0.007,-0.094,0.103,-0.022,-0.001,-0.132
-0.005,-0.093,0.1,-0.02,-0.004,-0.128
0.001,-0.081,0.082,-0.016,-0.009,-0.122
0.008,-0.072,0.056,-0.009,-0.013,-0.123
0.003,-0.078,0.027,-0.019,-0.015,-0.11
0,-0.084,0.009,-0.014,-0.015,-0.106
0.002,-0.076,-0.009,-0.01,-0.02,-0.102
0.004,-0.075,-0.026,-0.007,-0.021,-0.099
0.001,-0.088,-0.039,-0.009,-0.021,-0.099
-0.007,-0.094,-0.042,-0.014,-0.014,-0.096
-0.002,-0.081,-0.039,-0.007,-0.015,-0.098
0.005,-0.071,-0.048,-0.003,-0.018,-0.105
0.01,-0.067,-0.038,-0.004,-0.015,-0.103
0.01,-0.069,-0.007,-0.008,-0.008,-0.1
0.017,-0.067,0.019,-0.006,-0.004,-0.096
0.015,-0.073,0.053,-0.015,-0.002,-0.099
0.005,-0.083,0.082,-0.021,0.005,-0.101
-0.007,-0.095,0.082,-0.02,0.004,-0.088
-0.007,-0.094,0.084,-0.014,-0.001,-0.091
-0.01,-0.093,0.08,-0.01,-0.004,-0.086
-0.01,-0.093,0.068,-0.009,-0.006,-0.078
-0.01,-0.098,0.08,-0.011,-0.012,-0.087
-0.011,-0.097,0.059,-0.011,-0.007,-0.078
-0.008,-0.1,0.049,-0.013,-0.001,-0.069
0.004,-0.097,0.019,-0.022,0.004,-0.07
0.012,-0.086,0.009,-0.022,0.003,-0.085
0.006,-0.085,-0.007,-0.019,-0.01,-0.097
0.027,-0.061,-0.042,-0.007,-0.022,-0.117
0.035,-0.073,-0.06,-0.003,-0.032,-0.125
0.029,-0.082,-0.051,-0.001,-0.03,-0.125
0.03,-0.071,-0.026,-0.003,-0.026,-0.126
0.036,-0.059,-0.041,0,-0.024,-0.134
0.037,-0.049,-0.039,0,-0.022,-0.138
0.033,-0.03,0.002,-0.006,-0.011,-0.133
0.02,-0.03,0.013,-0.006,-0.007,-0.131
0.011,-0.043,0.049,-0.004,-0.009,-0.133
-0.003,-0.072,0.061,-0.014,0.002,-0.12
-0.02,-0.103,0.11,-0.031,0.018,-0.11
-0.023,-0.112,0.085,-0.027,0.012,-0.11
-0.022,-0.11,0.087,-0.025,0.008,-0.114
-0.023,-0.118,0.088,-0.025,0.008,-0.105
-0.022,-0.118,0.089,-0.027,0.003,-0.104
-0.011,-0.107,0.072,-0.024,-0,-0.102
0.003,-0.09,0.051,-0.017,-0.008,-0.104
0.008,-0.081,0.029,-0.017,-0.004,-0.096
0.009,-0.068,0.011,-0.017,-0.01,-0.1
0.019,-0.068,-0.019,-0.01,-0.016,-0.105
0.025,-0.067,-0.054,-0.004,-0.028,-0.105
0.019,-0.075,-0.058,-0.007,-0.015,-0.095
0.027,-0.082,-0.047,-0.009,-0.019,-0.114
0.033,-0.068,-0.036,-0.007,-0.023,-0.118
0.02,-0.075,-0.035,-0.009,-0.015,-0.106
0.007,-0.09,-0.023,-0.012,-0.005,-0.092
0.002,-0.103,0.038,-0.021,0.001,-0.1
-0.003,-0.092,0.031,-0.016,0,-0.084
-0.006,-0.086,0.026,-0.009,0.003,-0.084
0.001,-0.083,0.048,-0.013,0.002,-0.093
-0.009,-0.097,0.084,-0.021,0.007,-0.079
-0.007,-0.089,0.063,-0.016,0.003,-0.074
-0.001,-0.086,0.069,-0.011,-0.002,-0.078
0.008,-0.082,0.074,-0.011,-0.007,-0.084
0.012,-0.083,0.077,-0.013,-0.01,-0.083
0.009,-0.089,0.08,-0.016,-0.008,-0.078
0.011,-0.087,0.063,-0.013,-0.011,-0.073
0.006,-0.092,0.034,-0.014,-0.011,-0.062
0.009,-0.093,0.014,-0.016,-0.014,-0.064
0.019,-0.083,-0.01,-0.007,-0.019,-0.067
0.027,-0.073,-0.022,-0.004,-0.023,-0.073
0.032,-0.067,-0.037,-0.008,-0.021,-0.063
0.031,-0.07,-0.034,-0.009,-0.019,-0.075
0.023,-0.073,-0.019,-0.015,-0.01,-0.073
0.004,-0.078,-0.033,-0.017,-0.007,-0.068
0.003,-0.085,-0.017,-0.013,-0.008,-0.067
0.002,-0.092,0.005,-0.013,-0.008,-0.065
0.003,-0.084,0.039,-0.014,-0.005,-0.066
0.008,-0.086,0.047,-0.011,-0.006,-0.069
0.01,-0.084,0.059,-0.009,-0.005,-0.066
0.009,-0.092,0.058,-0.012,-0.005,-0.065
0.01,-0.094,0.076,-0.015,-0.001,-0.061
0.003,-0.099,0.089,-0.017,0.002,-0.051
-0.002,-0.094,0.081,-0.019,0.002,-0.043
-0.002,-0.084,0.07,-0.023,0,-0.036
-0.004,-0.089,0.078,-0.019,0.001,-0.026
-0.002,-0.081,0.05,-0.011,-0.007,-0.026
0.005,-0.07,0.009,-0.018,-0.012,-0.02
0.01,-0.063,-0.014,-0.016,-0.013,-0.014
0.009,-0.055,-0.041,-0.013,-0.016,-0.007
0.01,-0.056,-0.055,-0.009,-0.017,-0.016
0.008,-0.063,-0.058,-0.01,-0.019,-0.008
0.002,-0.083,-0.057,-0.014,-0.019,-0.007
0.008,-0.082,-0.05,-0.008,-0.019,-0.009
0.012,-0.082,-0.049,-0.001,-0.023,-0.012
0.013,-0.079,-0.037,-0,-0.024,-0.01
0.01,-0.088,0.012,-0.012,-0.02,-0.016
0.004,-0.077,-0.002,-0.012,-0.006,0.004
0.005,-0.065,0.003,-0.006,-0.004,0.001
0.009,-0.074,0.03,-0.011,-0.005,-0.005
-0.003,-0.096,0.037,-0.016,0.002,0.003
-0.018,-0.108,0.057,-0.025,0.01,0.013
-0.019,-0.115,0.058,-0.024,0.01,0.025
-0.012,-0.117,0.056,-0.028,0.009,0.034
-0.007,-0.114,0.05,-0.03,0.008,0.042
0.001,-0.105,0.05,-0.024,0,0.039
0.003,-0.103,0.027,-0.018,-0.004,0.047
-0.008,-0.113,-0.004,-0.026,0.003,0.072
-0.012,-0.115,-0.027,-0.024,-0.002,0.078
-0.017,-0.113,-0.045,-0.021,-0.008,0.073
-0.028,-0.12,-0.065,-0.015,-0.015,0.072
-0.025,-0.11,-0.081,-0.009,-0.02,0.075
-0.01,-0.089,-0.095,-0.004,-0.031,0.058
-0.007,-0.079,-0.081,-0.005,-0.027,0.051
0.007,-0.072,-0.082,-0.004,-0.022,0.047
0.015,-0.063,-0.068,-0.008,-0.016,0.052
0.029,-0.055,-0.052,-0.005,-0.012,0.043
0.041,-0.048,-0.013,-0.003,-0.013,0.021
0.063,-0.049,-0.008,-0.002,-0.011,0.025
0.068,-0.041,-0.02,0.001,-0.004,0.036
0.053,-0.035,0.009,-0.005,-0.005,0.047
0.04,-0.04,0.017,-0.011,-0.003,0.057
0.018,-0.067,0.034,-0.017,0.004,0.074
-0.005,-0.094,0.035,-0.022,0.01,0.091
-0.008,-0.102,0.025,-0.02,0.003,0.089
0.009,-0.088,0.017,-0.015,-0.002,0.086
0.02,-0.081,-0.007,-0.007,-0.013,0.078
0.018,-0.079,-0.03,-0.009,-0.014,0.077
0.016,-0.068,-0.051,-0.018,-0.005,0.078
0.008,-0.059,-0.087,-0.016,-0.012,0.084
0.006,-0.051,-0.088,-0.009,-0.014,0.085
0.006,-0.049,-0.105,-0.006,-0.019,0.082
0.006,-0.059,-0.101,-0.009,-0.021,0.072
0.005,-0.068,-0.09,-0.01,-0.02,0.066
0.013,-0.065,-0.084,-0.005,-0.022,0.064
0.018,-0.06,-0.073,-0.008,-0.021,0.06
0.011,-0.063,-0.063,-0.008,-0.016,0.071
0.002,-0.071,-0.017,-0.015,-0.008,0.071
-0.002,-0.067,-0.012,-0.006,-0.005,0.067
-0.004,-0.066,-0.005,-0.01,-0.003,0.069
-0.004,-0.075,0.021,-0.018,0.006,0.067
-0.009,-0.083,0.029,-0.019,-0,0.063
-0.011,-0.084,0.032,-0.016,-0.001,0.064
-0.006,-0.086,0.018,-0.02,-0.003,0.062
-0.002,-0.08,0.017,-0.022,-0.008,0.058
0.003,-0.077,0.015,-0.02,-0.009,0.066
0.006,-0.065,-0.013,-0.017,-0.014,0.064
0.009,-0.064,-0.025,-0.012,-0.016,0.065
0.015,-0.061,-0.052,-0.019,-0.016,0.063
0.016,-0.051,-0.059,-0.012,-0.018,0.065
0.012,-0.05,-0.081,-0.008,-0.016,0.065
0.017,-0.047,-0.086,-0.006,-0.024,0.063
0.019,-0.043,-0.088,-0.005,-0.028,0.049
0.027,-0.043,-0.071,-0.009,-0.024,0.054
0.019,-0.051,-0.076,-0.008,-0.02,0.053
0.013,-0.057,-0.056,-0.008,-0.015,0.06
0.002,-0.076,-0.044,-0.015,-0.009,0.061
-0.005,-0.083,-0.002,-0.018,-0.01,0.051
-0.009,-0.093,0.018,-0.02,-0.004,0.053
-0.005,-0.091,0.07,-0.019,-0.004,0.054
-0.003,-0.09,0.027,-0.017,-0.003,0.064
-0.001,-0.085,0.047,-0.014,-0.001,0.063
-0.003,-0.081,0.04,-0.014,-0.004,0.064
-0.002,-0.078,0.038,-0.019,-0.003,0.071
-0.009,-0.075,0.039,-0.02,-0.005,0.078
-0.01,-0.069,0.042,-0.018,-0.008,0.091
0.001,-0.061,0.017,-0.007,-0.02,0.09
0.009,-0.054,-0.025,-0.001,-0.025,0.097
0.013,-0.056,-0.037,0,-0.031,0.101
0.019,-0.054,-0.044,-0.01,-0.032,0.111
0.023,-0.05,-0.04,-0.01,-0.023,0.116
0.008,-0.058,-0.059,-0.019,-0.021,0.133
-0.009,-0.051,-0.065,-0.024,-0.01,0.155
-0.019,-0.059,-0.057,-0.022,-0.007,0.157
-0.026,-0.064,-0.06,-0.016,-0.009,0.173
-0.031,-0.067,-0.037,-0.015,-0.009,0.182
-0.033,-0.075,-0.024,-0.015,-0.008,0.191
-0.028,-0.075,-0.007,-0.01,-0.008,0.197
-0.019,-0.064,0.004,-0.006,-0.013,0.201
-0.018,-0.072,0.098,-0.016,-0.014,0.193
-0.018,-0.066,0.009,-0.01,-0.011,0.223
-0.024,-0.066,0.023,-0.01,-0.015,0.225
-0.02,-0.069,0.032,-0.006,-0.02,0.22
-0.018,-0.075,0.037,-0.006,-0.02,0.225
-0.015,-0.076,0.04,-0.006,-0.019,0.235
-0.009,-0.072,0.038,-0.006,-0.018,0.246
-0.009,-0.067,0.004,-0.009,-0.02,0.256
-0.018,-0.062,-0.019,-0.013,-0.009,0.277
-0.023,-0.059,-0.031,-0.02,-0.002,0.279
-0.014,-0.045,-0.045,-0.018,-0.004,0.282
-0.014,-0.048,-0.063,-0.008,-0.017,0.28
-0.016,-0.055,-0.079,-0.011,-0.014,0.28
-0.015,-0.056,-0.085,-0.013,-0.015,0.264
-0.023,-0.052,-0.073,-0.011,-0.016,0.274
-0.031,-0.059,-0.075,-0.009,-0.018,0.269
-0.042,-0.081,-0.059,-0.012,-0.014,0.27
-0.044,-0.104,-0.035,-0.021,0.001,0.289
-0.032,-0.096,0,-0.023,0.001,0.275
-0.014,-0.078,0.016,-0.021,-0.001,0.259
-0.004,-0.068,0.049,-0.016,-0.004,0.26
-0,-0.084,0.029,-0.012,-0.005,0.271
0.013,-0.072,0.032,-0.006,-0.013,0.259
0.029,-0.061,0.026,0.001,-0.014,0.253
0.025,-0.072,0.032,-0.008,-0.013,0.256
0.014,-0.083,0.042,-0.017,-0.013,0.255
0.004,-0.079,0.037,-0.015,-0.018,0.26
0.003,-0.073,0.017,-0.01,-0.023,0.249
-0.002,-0.074,0.008,-0.009,-0.017,0.267
-0.007,-0.076,-0.006,-0.027,-0.018,0.261
-0.003,-0.069,-0.03,-0.01,-0.021,0.252
0.002,-0.066,-0.046,-0.008,-0.023,0.243
0.01,-0.066,-0.054,-0.007,-0.021,0.232
0.022,-0.059,-0.063,-0.011,-0.024,0.222
0.023,-0.062,-0.043,-0.012,-0.014,0.219
0.032,-0.052,-0.05,-0.012,-0.01,0.212
0.03,-0.051,-0.024,-0.007,-0.012,0.198
0.035,-0.053,-0.022,-0.001,-0.016,0.191
0.033,-0.063,0.007,-0.001,-0.014,0.185
0.034,-0.056,0.011,0,-0.02,0.171
0.034,-0.075,0.138,-0.011,-0.017,0.127
0.035,-0.055,0.048,-0.001,-0.017,0.164
0.03,-0.057,0.053,-0.002,-0.012,0.16
0.03,-0.051,0.053,-0.003,-0.011,0.152
0.03,-0.041,0.051,-0.001,-0.016,0.153
0.032,-0.041,0.063,-0.009,-0.012,0.146
0.022,-0.04,0.063,-0.015,-0.01,0.144
0.019,-0.018,0.033,-0.009,-0.015,0.147
0.019,-0.026,0.008,-0.012,-0.015,0.149
0.005,-0.06,0.003,-0.02,-0.006,0.159
-0.011,-0.085,0.002,-0.029,0.004,0.167
-0.021,-0.086,-0.018,-0.029,0.002,0.171
-0.02,-0.079,-0.042,-0.024,-0.009,0.157
-0.016,-0.083,-0.053,-0.023,-0.014,0.146
-0.01,-0.087,-0.04,-0.023,-0.015,0.144
-0.007,-0.083,-0.038,-0.019,-0.012,0.138
0.001,-0.067,-0.03,-0.016,-0.014,0.132
0.006,-0.067,-0.014,-0.016,-0.012,0.122
0.006,-0.077,0.042,-0.019,-0.017,0.093
0.012,-0.063,0.004,-0.01,-0.009,0.11
0.012,-0.058,0.021,-0.013,-0.004,0.104
0.019,-0.063,0.048,-0.013,-0.005,0.097
0.027,-0.059,0.042,-0.007,-0.013,0.082
0.03,-0.051,0.041,-0.009,-0.016,0.079
0.022,-0.061,0.033,-0.008,-0.013,0.088
0.019,-0.067,0.041,-0.013,-0.01,0.09
0.012,-0.073,0.031,-0.021,-0.01,0.096
0.015,-0.065,0.018,-0.016,-0.014,0.091
0.023,-0.058,-0.017,-0.011,-0.014,0.093
0.022,-0.058,-0.029,-0.015,-0.016,0.089
0.014,-0.055,-0.059,-0.014,-0.014,0.085
0.014,-0.043,-0.096,-0.015,-0.014,0.088
0.008,-0.044,-0.085,-0.018,-0.008,0.08
0.007,-0.056,-0.086,-0.016,-0.013,0.069
0.003,-0.065,-0.072,-0.015,-0.014,0.066
0.004,-0.062,-0.079,-0.01,-0.018,0.063
0.01,-0.062,-0.077,-0.005,-0.016,0.061
0.015,-0.059,-0.07,-0.006,-0.016,0.058
0.015,-0.058,-0.033,-0.009,-0.019,0.048
0.015,-0.054,-0.042,-0.005,-0.016,-0.002
0.011,-0.059,-0.031,-0.005,-0.013,0.054
0.012,-0.066,-0.001,-0.009,-0.01,0.05
0.003,-0.075,0.003,-0.013,-0.007,0.049
-0.002,-0.082,0.011,-0.019,-0.003,0.061
-0.003,-0.082,-0.004,-0.019,0,0.06
0,-0.076,0.002,-0.02,-0.003,0.057
0.002,-0.075,0,-0.018,-0.007,0.061
0.005,-0.062,-0.021,-0.009,-0.008,0.066
0.012,-0.049,-0.045,-0.001,-0.013,0.073
0.019,-0.038,-0.056,-0.011,-0.011,0.08
0.018,-0.044,-0.08,-0.003,-0.014,0.074
0.016,-0.044,-0.095,0.003,-0.013,0.072
0.012,-0.052,-0.104,0.005,-0.019,0.071
0.008,-0.071,-0.105,-0.004,-0.014,0.061
0.013,-0.08,-0.096,-0.009,-0.008,0.062
0.018,-0.07,-0.096,-0.012,-0.003,0.051
0.011,-0.065,-0.09,-0.011,-0.006,0.05
0.002,-0.08,-0.069,-0.012,-0.013,0.043
0.004,-0.074,-0.047,-0.01,-0.014,0.041
0.01,-0.067,-0.017,-0.008,-0.007,0.034
0.017,-0.074,0.071,-0.025,0.003,0.032
0.011,-0.075,0.002,-0.023,0.015,0.056
0.014,-0.066,0.01,-0.016,0.005,0.044
0.026,-0.051,0.013,-0.009,-0.004,0.029
0.047,-0.037,0.003,-0.002,-0.013,0.012
0.039,-0.039,0.007,-0.008,-0.01,0.015
0.04,-0.043,-0.006,-0.004,-0.011,0.015
0.038,-0.05,-0.018,-0,-0.016,0.017
0.025,-0.061,-0.019,0,-0.015,0.03
0.008,-0.077,-0.03,-0.008,-0.013,0.04
0.007,-0.074,-0.056,-0.001,-0.021,0.045
0.009,-0.061,-0.065,0,-0.028,0.045
-0.002,-0.047,-0.08,-0.004,-0.018,0.058
-0.006,-0.045,-0.082,-0.012,-0.012,0.043
-0,-0.037,-0.065,-0.006,-0.011,0.038
0.001,-0.035,-0.067,-0.008,-0.009,0.028
0.01,-0.035,-0.051,-0.007,-0.008,0.024
0.025,-0.055,0.008,-0.012,-0.01,0.009
0.033,-0.058,0.018,-0.006,-0.012,0.001
0.04,-0.029,0.009,-0.008,-0.007,0.011
0.021,-0.056,0.012,-0.018,0.009,0.032
-0.002,-0.08,0.048,-0.03,0.022,0.04
-0.013,-0.07,0.061,-0.027,0.014,0.033
-0.028,-0.074,0.072,-0.025,0.007,0.036
-0.031,-0.082,0.071,-0.029,0.008,0.03
-0.035,-0.09,0.057,-0.032,0.006,0.036
-0.021,-0.083,0.06,-0.03,0.001,0.03
0.006,-0.073,0.034,-0.021,-0.007,0.02
0.034,-0.067,0.018,-0.008,-0.014,0.01
0.035,-0.059,0.004,-0.008,-0.016,0.001
0.037,-0.054,-0.019,-0.005,-0.024,-0.017
0.034,-0.048,-0.035,-0.002,-0.03,-0.029
0.045,-0.046,-0.045,0.002,-0.024,-0.041
0.052,-0.034,-0.053,0.001,-0.024,-0.066
0.058,-0.023,-0.043,0.001,-0.024,-0.07
0.047,-0.027,-0.054,-0.003,-0.018,-0.052
0.033,-0.041,-0.033,-0.012,-0.008,-0.051
0.027,-0.068,-0.011,-0.017,-0.004,-0.043
0.026,-0.074,0.04,-0.028,0.001,-0.061
0.02,-0.066,0.022,-0.026,0.008,-0.042
0.008,-0.065,0.036,-0.017,0.005,-0.039
-0.006,-0.073,0.052,-0.023,0.008,-0.031
-0.004,-0.072,0.054,-0.017,-0.001,-0.045
0,-0.068,0.057,-0.012,-0.007,-0.051
0.001,-0.066,0.049,-0.016,-0.006,-0.046
-0.001,-0.065,0.059,-0.021,-0.003,-0.047
0,-0.058,0.052,-0.023,-0.004,-0.051
0.012,-0.037,0.023,-0.014,-0.012,-0.054
0.009,-0.036,-0.003,-0.012,-0.011,-0.049
0.008,-0.046,-0.03,-0.012,-0.013,-0.047
0.016,-0.05,-0.051,-0.017,-0.014,-0.05
0.018,-0.05,-0.069,-0.013,-0.012,-0.045
0.022,-0.047,-0.08,-0.013,-0.013,-0.043
0.026,-0.04,-0.082,-0.01,-0.02,-0.052
0.026,-0.041,-0.076,-0.01,-0.024,-0.062
0.025,-0.041,-0.075,-0.005,-0.025,-0.062
0.017,-0.047,-0.066,-0.01,-0.019,-0.059
0.01,-0.061,-0.062,-0.013,-0.012,-0.052
0.007,-0.069,-0.015,-0.013,-0.01,-0.065
0.007,-0.061,-0.033,-0.035,-0.001,-0.082
-0.002,-0.06,-0.014,-0.011,0.001,-0.052
-0.01,-0.062,0.013,-0.013,-0.002,-0.045
-0.006,-0.061,0.004,-0.009,-0.01,-0.047
-0.001,-0.056,0.008,-0.007,-0.014,-0.053
0.003,-0.048,0.016,-0.007,-0.01,-0.055
0.005,-0.044,0.016,-0.009,-0.011,-0.053
0.003,-0.054,0.008,-0.013,-0.012,-0.046
0.001,-0.048,-0.015,-0.008,-0.015,-0.045
-0.005,-0.052,-0.046,-0.009,-0.016,-0.031
-0.009,-0.057,-0.06,-0.012,-0.014,-0.017
-0.008,-0.05,-0.074,-0.018,-0.011,-0.007
-0.002,-0.042,-0.095,-0.009,-0.013,0
-0.002,-0.045,-0.109,-0.008,-0.015,0.012
-0.007,-0.063,-0.113,-0.015,-0.01,0.027
-0.024,-0.08,-0.112,-0.021,-0.005,0.04
-0.016,-0.067,-0.109,-0.013,-0.009,0.041
-0.003,-0.063,-0.092,-0.017,-0.003,0.055
0.006,-0.061,-0.058,-0.021,-0.003,0.031
0.006,-0.047,-0.044,-0.016,-0.017,0.036
0.002,-0.045,-0.054,-0.008,-0.02,0.045
-0.005,-0.054,-0.034,-0.006,-0.013,0.048
-0.009,-0.052,-0.021,-0.007,-0.013,0.048
-0.005,-0.05,-0.005,-0.01,-0.008,0.052
-0.009,-0.056,0.002,-0.011,-0.009,0.061
-0.009,-0.057,-0.007,-0.012,-0.005,0.076
-0.01,-0.054,0.005,-0.015,-0.001,0.083
-0.013,-0.053,0.002,-0.016,-0.006,0.09
-0.023,-0.049,-0.025,-0.012,-0.009,0.103
-0.025,-0.052,-0.044,-0.008,-0.013,0.115
-0.022,-0.055,-0.053,-0.006,-0.018,0.117
-0.012,-0.051,-0.071,-0.007,-0.023,0.112
-0.006,-0.044,-0.102,-0.001,-0.028,0.108
-0.008,-0.04,-0.114,-0.002,-0.031,0.113
-0.01,-0.043,-0.104,-0.01,-0.018,0.113
-0.005,-0.037,-0.091,-0.011,-0.018,0.1
-0,-0.036,-0.108,-0.004,-0.021,0.105
0.002,-0.046,-0.075,-0.007,-0.015,0.105
-0.005,-0.061,-0.054,-0.016,-0.007,0.104
-0.015,-0.077,-0.053,-0.018,0.001,0.109
-0.018,-0.066,-0.018,-0.015,-0.002,0.053
-0.013,-0.059,0.012,-0.012,-0.006,0.107
-0.003,-0.058,0.031,-0.011,-0.01,0.1
-0.005,-0.055,0.007,-0.012,-0.01,0.092
-0.011,-0.06,0.028,-0.018,-0.005,0.097
0.004,-0.044,0.033,-0.015,-0.008,0.081
0.021,-0.032,0.049,-0.017,-0.015,0.063
0.007,-0.048,0.037,-0.022,-0.011,0.065
-0.005,-0.047,0.028,-0.017,-0.01,0.067
-0.001,-0.04,0.002,-0.007,-0.017,0.066
0.013,-0.027,-0.013,-0.006,-0.023,0.053
0.019,-0.015,-0.06,-0.012,-0.028,0.049
0.018,-0.011,-0.061,-0.002,-0.029,0.041
0.012,-0.027,-0.061,-0.005,-0.027,0.039
0.006,-0.051,-0.059,-0.014,-0.023,0.036
0.005,-0.061,-0.061,-0.014,-0.02,0.034
0.014,-0.052,-0.056,-0.008,-0.023,0.025
0.013,-0.047,-0.049,-0.011,-0.018,0.019
0.011,-0.041,-0.01,-0.016,-0.015,0.003
0.013,-0.037,0.002,-0.015,-0.015,-0.013
0.011,-0.038,0.015,-0.016,-0.013,-0.014
-0.007,-0.043,0.096,-0.029,-0.001,-0.017
-0.025,-0.061,0.042,-0.033,0.01,0.004
-0.036,-0.072,0.035,-0.035,0.015,0.004
-0.031,-0.07,0.042,-0.036,0.01,-0.004
-0.033,-0.079,0.057,-0.039,0.017,-0.004
-0.032,-0.075,0.075,-0.04,0.012,-0.015
-0.021,-0.066,0.056,-0.036,0.004,-0.022
-0.014,-0.064,0.027,-0.036,0.009,-0.019
-0.001,-0.059,0.013,-0.029,0.012,-0.025
0.021,-0.04,-0.006,-0.03,0.01,-0.041
0.05,-0.014,-0.041,-0.018,-0.007,-0.067
0.073,0,-0.056,-0.011,-0.023,-0.084
0.071,-0.008,-0.066,-0.01,-0.017,-0.079
0.069,-0.011,-0.07,-0.008,-0.026,-0.09
0.054,-0.022,-0.065,-0.006,-0.029,-0.091
0.038,-0.031,-0.072,0,-0.037,-0.1
0.027,-0.036,-0.053,-0.003,-0.029,-0.093
0.01,-0.052,0,-0.014,-0.017,-0.089
-0.003,-0.057,0.06,-0.026,-0.006,-0.095
-0.012,-0.058,0.028,-0.019,-0.003,-0.074
-0.03,-0.06,0.016,-0.024,0.007,-0.062
-0.049,-0.079,0.036,-0.032,0.021,-0.044
-0.069,-0.095,0.04,-0.035,0.026,-0.042
-0.057,-0.082,0.042,-0.033,0.022,-0.051
-0.037,-0.07,0.042,-0.028,0.017,-0.066
-0.01,-0.065,0.045,-0.027,0.016,-0.068
0.034,-0.046,0.019,-0.018,-0.009,-0.105
0.064,-0.028,0.001,0.001,-0.033,-0.129
0.06,-0.031,-0.022,0.003,-0.031,-0.122
0.054,-0.034,-0.04,-0.005,-0.027,-0.121
0.061,-0.028,-0.07,-0.001,-0.039,-0.141
0.067,-0.013,-0.076,-0.001,-0.041,-0.149
0.065,-0.016,-0.08,-0.002,-0.041,-0.157
0.042,-0.03,-0.079,-0.004,-0.034,-0.153
0.017,-0.048,-0.082,-0.01,-0.02,-0.147
0.011,-0.048,-0.073,-0.01,-0.019,-0.151
0.015,-0.044,-0.062,-0.011,-0.016,-0.156
0.021,-0.041,-0.051,-0.007,-0.017,-0.16
0.027,-0.046,-0.031,-0.003,-0.02,-0.228
0.024,-0.042,-0.016,-0.004,-0.022,-0.178
0.02,-0.049,-0.005,-0.005,-0.014,-0.174
0.014,-0.058,0.019,-0.008,-0.011,-0.174
0.023,-0.05,0.013,0.001,-0.018,-0.184
0.033,-0.038,0.019,-0.001,-0.024,-0.195
0.04,-0.032,0.012,-0,-0.022,-0.194
0.039,-0.027,0.02,-0.004,-0.014,-0.187
0.036,-0.022,0.006,-0.005,-0.016,-0.185
0.028,-0.021,-0.021,-0.001,-0.022,-0.186
0.016,-0.034,-0.029,-0.015,-0.016,-0.166
0.005,-0.049,-0.035,-0.015,-0.012,-0.153
0.007,-0.048,-0.063,-0.013,-0.016,-0.151
0.005,-0.054,-0.07,-0.014,-0.016,-0.144
0.002,-0.048,-0.068,-0.016,-0.01,-0.139
0.005,-0.043,-0.076,-0.015,-0.012,-0.139
0.007,-0.042,-0.087,-0.009,-0.018,-0.144
0.006,-0.047,-0.093,-0.003,-0.017,-0.141
-0.003,-0.058,-0.068,-0.008,-0.012,-0.127
-0.01,-0.062,-0.058,-0.013,-0.007,-0.105
-0.004,-0.05,-0.02,-0.011,-0.01,-0.11
0.002,-0.042,-0.015,-0.011,-0.012,-0.103
0,-0.039,-0.025,-0.015,-0.004,-0.093
-0.003,-0.04,0.026,-0.019,0.001,-0.085
-0.007,-0.048,0.016,-0.014,-0.001,-0.075
-0.016,-0.054,0.028,-0.011,-0.005,-0.065
-0.018,-0.05,0.018,-0.011,-0.008,-0.052
-0.023,-0.064,0.033,-0.017,-0.002,-0.031
-0.027,-0.067,0.024,-0.017,-0.005,-0.018
-0.02,-0.066,0.005,-0.013,-0.009,-0.016
-0.016,-0.054,-0.007,-0.027,-0.004,-0
-0.016,-0.055,-0.018,-0.016,-0.008,0.005
-0.015,-0.06,-0.053,-0.012,-0.012,0.014
-0.007,-0.05,-0.067,-0.012,-0.016,0.013
-0.022,-0.051,-0.074,-0.015,-0.01,0.022
-0.032,-0.061,-0.08,-0.016,-0.009,0.02
-0.025,-0.059,-0.078,-0.016,-0.011,0.016
-0.019,-0.052,-0.086,-0.014,-0.016,0.014
-0.026,-0.053,-0.06,-0.014,-0.012,0.029
-0.029,-0.059,-0.044,-0.012,-0.007,0.041
-0.025,-0.06,0.109,-0.023,-0.004,0.013
-0.024,-0.059,-0.025,-0.009,-0.012,0.046
-0.021,-0.057,-0.007,-0.011,-0.011,0.055
-0.018,-0.054,0.026,-0.012,-0.006,0.065
-0.019,-0.051,0.023,-0.013,-0.008,0.067
-0.028,-0.054,0.027,-0.018,-0.005,0.072
-0.03,-0.059,0.024,-0.015,-0.006,0.078
-0.029,-0.066,0.041,-0.016,-0.006,0.078
-0.022,-0.067,0.035,-0.01,-0.011,0.081
-0.015,-0.068,0.01,-0.007,-0.016,0.078
-0.001,-0.056,-0.013,-0.013,-0.02,0.085
0.005,-0.05,-0.017,0.001,-0.028,0.081
0.02,-0.037,-0.058,0.008,-0.045,0.077
0.021,-0.032,-0.074,0.014,-0.04,0.079
0.019,-0.024,-0.091,0.011,-0.035,0.073
0.014,-0.031,-0.089,-0,-0.026,0.072
0.004,-0.043,-0.07,-0.006,-0.02,0.057
0.015,-0.047,-0.073,-0.007,-0.022,0.049
0.011,-0.044,-0.056,-0.025,-0.004,0.049
-0.013,-0.063,-0.044,-0.031,0.008,0.058
-0.03,-0.068,-0.006,-0.029,0.007,0.052
-0.033,-0.074,0.159,-0.035,0.008,0.022
-0.023,-0.062,0.313,-0.045,0.011,-0.014
-0.013,-0.056,0.024,-0.022,0.007,0.045
-0.005,-0.052,0.037,-0.018,0.001,0.034
-0.005,-0.056,0.051,-0.02,0.003,0.017
0.004,-0.051,0.043,-0.025,0.002,0.007
0,-0.059,0.048,-0.029,0.007,0.003
-0.006,-0.066,0.043,-0.026,0.001,-0.005
-0.005,-0.062,0.019,-0.022,-0.01,-0.016
-0.004,-0.052,-0.006,-0.019,-0.009,-0.021
0.004,-0.05,-0.026,-0.017,-0.009,-0.038
0.007,-0.044,-0.062,-0.015,-0.013,-0.048
0.001,-0.052,-0.066,-0.015,-0.021,-0.051
-0.007,-0.051,-0.068,-0.019,-0.008,-0.045
-0.019,-0.065,-0.06,-0.024,-0.004,-0.055
-0.021,-0.075,-0.059,-0.026,0.003,-0.056
-0.018,-0.08,-0.063,-0.025,0.006,-0.065
0.001,-0.063,-0.059,-0.018,0.001,-0.092
0.017,-0.051,-0.018,-0.013,-0.012,-0.125
0.038,-0.046,-0.016,-0.005,-0.02,-0.159
0.039,-0.062,0.008,-0.007,-0.009,-0.163
0.036,-0.07,0.084,-0.021,0.001,-0.187
0.046,-0.072,0.032,-0.016,0.002,-0.202
0.088,-0.047,0.015,-0.007,-0.016,-0.252
0.124,-0.016,0.024,0.003,-0.032,-0.295
0.126,-0.012,0.016,0.005,-0.035,-0.308
0.091,-0.028,0.041,-0.001,-0.02,-0.297
0.06,-0.042,0.035,-0.007,-0.014,-0.295
0.036,-0.059,0.028,-0.015,-0.007,-0.289
0.025,-0.057,0.006,-0.019,-0.003,-0.3
0.038,-0.043,-0.011,-0.017,-0.008,-0.315
0.038,-0.034,-0.042,-0.008,-0.012,-0.298
0.027,-0.043,-0.058,-0.007,-0.02,-0.282
0.015,-0.047,-0.063,-0.01,-0.009,-0.261
0.013,-0.043,-0.063,-0.01,-0.008,-0.268
0.006,-0.043,-0.063,-0.007,-0.008,-0.255
-0,-0.054,-0.06,-0.006,-0.013,-0.252
-0.017,-0.06,-0.054,-0.007,-0.009,-0.238
-0.026,-0.074,-0.015,-0.015,-0.001,-0.23
-0.026,-0.08,-0.005,-0.017,0.004,-0.224
-0.023,-0.077,0.002,-0.017,0.008,-0.222
-0.011,-0.06,0.007,-0.007,-0.006,-0.238
-0,-0.051,0.041,-0.002,-0.023,-0.257
0.009,-0.05,0.01,0.002,-0.018,-0.253
0.001,-0.065,0.022,-0.01,-0.002,-0.233
0.005,-0.064,0.023,-0.015,0.006,-0.229
0.017,-0.056,0.033,-0.016,0.006,-0.236
0.023,-0.05,0.027,-0.019,0.003,-0.235
0.032,-0.041,0.008,-0.014,-0.012,-0.26
0.03,-0.04,-0.016,-0.007,-0.023,-0.262
0.025,-0.041,-0.042,-0.006,-0.016,-0.248
0.033,-0.027,-0.07,-0.001,-0.021,-0.243
0.031,-0.022,-0.083,-0.012,-0.021,-0.235
0.028,-0.029,-0.088,-0.005,-0.017,-0.232
0.028,-0.031,-0.088,-0.002,-0.03,-0.245
0.033,-0.026,-0.083,0.003,-0.037,-0.261
0.044,-0.016,-0.093,0.009,-0.043,-0.277
0.036,-0.016,-0.09,0.007,-0.032,-0.261
0.017,-0.025,-0.074,0,-0.014,-0.245
-0.001,-0.033,-0.036,-0.008,-0.01,-0.245
-0.002,-0.019,-0.03,-0.008,-0.006,-0.238
-0.007,-0.034,-0.009,-0.011,0.003,-0.23
-0.017,-0.049,-0.012,-0.015,0.004,-0.223
-0.022,-0.059,-0.002,-0.019,0.01,-0.215
-0.021,-0.065,0.014,-0.018,0.012,-0.209
-0.028,-0.076,0.006,-0.022,0.013,-0.193
-0.031,-0.073,0.02,-0.028,0.017,-0.185
-0.024,-0.072,0.008,-0.03,0.015,-0.186
-0.018,-0.062,-0.011,-0.025,0.005,-0.182
-0.017,-0.061,-0.03,-0.022,0.002,-0.172
-0.008,-0.055,-0.057,-0.015,-0.007,-0.171
-0.002,-0.05,-0.091,-0.004,-0.021,-0.175
0.006,-0.041,-0.115,0.002,-0.025,-0.175
0.011,-0.034,-0.116,0.007,-0.027,-0.172
0.014,-0.037,-0.121,0.004,-0.034,-0.177
0.014,-0.042,-0.119,-0,-0.024,-0.171
0.009,-0.034,-0.113,-0.003,-0.018,-0.168
0.007,-0.034,-0.087,-0.008,-0.008,-0.162
-0.002,-0.039,-0.072,-0.008,-0.008,-0.159
-0.009,-0.049,-0.053,-0.008,-0.003,-0.147
-0.014,-0.053,-0.032,-0.012,-0.002,-0.145
-0.013,-0.062,-0.004,-0.012,0.001,-0.136
-0.011,-0.068,-0.003,-0.011,-0.002,-0.134
0.001,-0.057,0.013,-0.01,-0.009,-0.137
0.002,-0.045,0.022,-0.012,-0.006,-0.134
0.002,-0.039,0.015,-0.014,-0.004,-0.129
-0.012,-0.05,0.035,-0.024,0.003,-0.114
-0.033,-0.062,0.026,-0.024,0.002,-0.088
-0.05,-0.067,0.009,-0.022,-0,-0.077
-0.053,-0.07,-0.005,-0.015,-0.004,-0.061
-0.061,-0.083,-0.016,-0.019,0,-0.04
-0.071,-0.086,-0.045,-0.023,-0.001,-0.019
-0.073,-0.093,-0.047,-0.024,0.002,-0.003
-0.073,-0.095,-0.06,-0.022,0.004,0.007
-0.063,-0.098,-0.066,-0.018,-0.001,0.001
-0.043,-0.089,-0.069,-0.019,-0.01,-0.014
-0.015,-0.065,-0.063,-0.008,-0.018,-0.031
0.011,-0.049,-0.077,-0.006,-0.021,-0.034
0.04,-0.036,-0.072,0.002,-0.032,-0.038
0.037,-0.038,-0.043,0.002,-0.027,-0.011
0.032,-0.015,-0.019,-0.006,-0.013,0
0.015,-0.025,-0.01,-0.016,0.002,0.032
0.016,-0.021,0.007,-0.015,-0.004,0.034
0.023,-0.019,0.003,-0.005,-0.009,0.051
0.018,-0.029,0.011,-0.01,-0.003,0.058
0.018,-0.026,0.002,-0.011,-0.009,0.06
0.018,-0.029,0.017,-0.016,-0.009,0.063
0.004,-0.036,0.015,-0.021,-0.007,0.07
0.008,-0.037,-0.004,-0.014,-0.019,0.071
0.007,-0.042,-0.024,-0.012,-0.023,0.086
-0.011,-0.048,-0.042,-0.019,-0.016,0.1
-0.019,-0.04,-0.059,-0.021,-0.013,0.112
-0.029,-0.041,-0.081,-0.012,-0.016,0.121
-0.03,-0.044,-0.088,-0.012,-0.016,0.133
-0.027,-0.04,-0.103,-0.019,-0.015,0.129
-0.022,-0.039,-0.081,-0.021,-0.013,0.13
-0.022,-0.036,-0.087,-0.015,-0.017,0.124
-0.013,-0.035,-0.086,-0.007,-0.023,0.117
-0.021,-0.035,-0.07,-0.004,-0.022,0.126
-0.018,-0.034,-0.019,-0.016,-0.014,0.123
-0.02,-0.045,-0.007,-0.016,-0.005,0.105
-0.021,-0.052,0.065,-0.027,-0.001,0.105
-0.026,-0.053,0.008,-0.021,0.004,0.121
-0.027,-0.047,0.021,-0.022,0.006,0.118
-0.025,-0.049,0.019,-0.024,-0.005,0.108
-0.018,-0.054,0.016,-0.026,0,0.106
-0.016,-0.048,0.028,-0.026,0.001,0.101
-0.011,-0.042,0.021,-0.022,-0.001,0.105
-0.006,-0.033,-0.009,-0.017,-0.009,0.099
-0.007,-0.029,-0.038,-0.016,-0.014,0.1
-0.004,-0.027,-0.033,-0.016,-0.016,0.095
0.007,-0.029,-0.059,-0.01,-0.021,0.091
0.011,-0.026,-0.076,-0.009,-0.023,0.082
0.02,-0.029,-0.097,-0.011,-0.022,0.075
0.013,-0.032,-0.087,-0.015,-0.018,0.071
-0.007,-0.038,-0.08,-0.012,-0.013,0.077
-0.007,-0.037,-0.094,-0.013,-0.013,0.071
-0.001,-0.046,-0.059,-0.019,-0.008,0.061
0.009,-0.043,-0.036,-0.015,-0.014,0.069
0.018,-0.043,-0.012,-0.011,-0.016,0.051
0.016,-0.04,-0.027,-0.006,-0.02,0.054
0.006,-0.044,-0.027,-0.087,-0.017,-0.006
0.002,-0.041,-0.003,-0.012,-0.006,0.063
-0.001,-0.028,0.006,-0.012,-0.001,0.065
-0.015,-0.016,0.016,-0.019,0.005,0.052
-0.018,-0.002,0.021,-0.02,-0,0.05
-0.006,0.005,0.028,-0.019,-0.001,0.046
0.01,0.011,0.019,-0.019,-0.006,0.044
0.019,0.011,-0.009,-0.018,-0.01,0.048
0.02,0.011,-0.024,-0.017,-0.008,0.05
0.02,0.008,-0.038,-0.017,-0.006,0.055
0.019,0.008,-0.064,-0.014,-0.012,0.058
0.023,0.001,-0.093,-0.008,-0.017,0.048
0.012,-0.014,-0.099,-0.01,-0.018,0.065
0.025,-0.019,-0.093,-0.007,-0.015,0.064
0.009,-0.039,-0.093,-0.006,-0.019,0.063
-0.003,-0.05,-0.098,0,-0.026,0.054
-0.009,-0.067,-0.084,-0.008,-0.018,0.06
-0.013,-0.078,-0.056,-0.01,-0.007,0.071
0.001,-0.062,-0.017,-0.018,-0.005,0.069
-0.005,-0.053,-0.038,-0.015,-0.002,0.084
-0.016,-0.06,-0.009,-0.018,0.001,0.093
-0.022,-0.064,0.017,-0.023,0.007,0.093
-0.03,-0.069,0.016,-0.02,0.001,0.087
-0.031,-0.068,0.023,-0.021,0.001,0.086
-0.04,-0.06,0.016,-0.027,0.005,0.097
-0.055,-0.064,0.031,-0.03,0.013,0.104
-0.067,-0.076,0.024,-0.031,0.015,0.108
-0.051,-0.083,0.005,-0.03,0.004,0.101
-0.015,-0.062,-0.024,-0.019,-0.01,0.091
0.002,-0.046,-0.047,-0.009,-0.024,0.067
0.006,-0.049,-0.071,-0.008,-0.029,0.061
0.004,-0.061,-0.074,-0.012,-0.023,0.07
-0.003,-0.069,-0.081,-0.027,-0.016,0.075
0.008,-0.051,-0.088,-0.019,-0.011,0.069
0.015,-0.037,-0.086,-0.018,-0.02,0.065
0.01,-0.032,-0.085,-0.013,-0.016,0.069
0.007,-0.045,-0.07,-0.013,-0.014,0.07
0.009,-0.048,-0.031,-0.012,-0.018,0.065
0.007,-0.032,-0.034,-0.007,-0.02,0.069
-0.004,-0.021,-0.031,-0.006,-0.02,0.072
-0.006,-0.03,-0.005,-0.013,-0.006,0.077
0,-0.04,0,-0.02,0.004,0.084
-0.004,-0.045,0.016,-0.026,0.008,0.086
-0.007,-0.05,0.023,-0.026,0.009,0.083
-0.01,-0.057,0.023,-0.022,0.006,0.081
-0.012,-0.059,0.026,-0.025,0.009,0.081
-0.019,-0.062,0.012,-0.027,0.006,0.082
-0.015,-0.056,-0.01,-0.018,-0.003,0.081
-0.006,-0.057,-0.034,-0.02,-0.002,0.086
-0.003,-0.061,-0.049,-0.024,-0.003,0.085
-0.014,-0.076,-0.073,-0.028,-0.009,0.076
-0.007,-0.071,-0.09,-0.017,-0.016,0.064
0.018,-0.045,-0.119,-0.002,-0.033,0.042
0.034,-0.042,-0.122,0.001,-0.039,0.025
0.04,-0.041,-0.111,0,-0.037,0.018
0.041,-0.026,-0.109,0.001,-0.031,0.017
0.038,-0.014,-0.103,0,-0.024,0.014
0.04,-0.007,-0.09,-0.009,-0.02,0.007
0.038,-0.011,-0.068,-0.006,-0.019,-0.002
0.033,-0.004,-0.054,-0.022,-0.022,-0.03
0.022,-0.01,-0.025,-0.014,-0.012,0.001
0.013,-0.013,-0.016,-0.015,-0.007,-0.004
0.028,0.04,-0.014,-0.012,-0.01,-0.021
0.051,0.087,-0.018,-0.005,-0.019,-0.044
0.067,0.087,-0.025,-0.003,-0.026,-0.054
0.063,0.069,-0.019,-0.008,-0.025,-0.052
0.058,0.06,-0.018,-0.012,-0.019,-0.045
0.053,0.053,-0.032,-0.02,-0.011,-0.041
0.024,0.026,-0.063,-0.027,0.004,-0.023
0.008,0.008,-0.077,-0.031,0.01,-0.006
-0.007,-0.015,-0.093,-0.036,0.013,-0.003
-0.037,-0.066,-0.112,-0.032,0.014,0.009
-0.066,-0.119,-0.119,-0.027,0.014,0.026
-0.083,-0.142,-0.131,-0.023,0.007,0.032
-0.067,-0.104,-0.124,-0.011,-0.009,0.007
-0.017,-0.061,-0.146,0.011,-0.036,-0.025
0.008,-0.048,-0.136,0.024,-0.049,-0.047
0.021,-0.038,-0.099,0.018,-0.049,-0.054
0.024,-0.027,-0.091,0.019,-0.043,-0.06
0.022,-0.033,-0.083,0.01,-0.028,-0.056
0.005,-0.065,-0.049,-0.009,-0.008,-0.043
-0.024,-0.104,-0.038,-0.023,0.013,-0.016
-0.021,-0.095,-0.025,-0.029,0.014,-0.026
-0.018,-0.108,-0.018,-0.03,0.018,-0.037
-0.02,-0.111,-0.023,-0.029,0.007,-0.039
-0.013,-0.095,-0.014,-0.025,0.01,-0.043
-0.008,-0.085,-0.029,-0.018,0.002,-0.047
-0.012,-0.077,-0.055,-0.009,-0.005,-0.041
-0.01,-0.076,-0.083,-0.016,-0.004,-0.033
-0.008,-0.077,-0.086,-0.016,-0.006,-0.038
0.013,-0.065,-0.109,-0.012,-0.016,-0.048
0.029,-0.049,-0.134,-0.008,-0.021,-0.061
0.046,-0.035,-0.153,-0.009,-0.023,-0.075
0.043,-0.037,-0.138,-0.011,-0.022,-0.091
0.032,-0.043,-0.131,-0.01,-0.013,-0.081
0.008,-0.054,-0.136,-0.007,-0.013,-0.068
-0.012,-0.065,-0.108,-0.013,-0.009,-0.065
-0.018,-0.062,-0.088,-0.012,-0.009,-0.05
-0.022,-0.076,-0.063,-0.013,-0.005,-0.061
-0.014,-0.068,-0.069,-0.012,-0.004,-0.05
-0.022,-0.085,0.04,-0.03,0.004,-0.081
-0.023,-0.067,-0.042,-0.025,0.008,-0.029
-0.017,-0.06,-0.035,-0.022,0.006,-0.037
-0.009,-0.058,-0.034,-0.018,0.004,-0.049
0.001,-0.049,-0.034,-0.019,0.003,-0.059
0.008,-0.047,-0.014,-0.024,0.006,-0.062
0.016,-0.038,-0.024,-0.021,0.002,-0.065
0.021,-0.03,-0.051,-0.022,-0.006,-0.066
0.024,-0.027,-0.076,-0.01,-0.013,-0.058
0.027,-0.022,-0.09,-0.004,-0.026,-0.058
0.038,-0.011,-0.119,0.003,-0.032,-0.063
0.038,-0.005,-0.134,0.001,-0.025,-0.064
0.01,-0.011,-0.132,-0.008,-0.013,-0.039
-0.012,-0.035,-0.137,-0.013,-0.007,-0.021
-0.027,-0.062,-0.135,-0.017,0,-0.011
-0.013,-0.066,-0.132,-0.021,-0.002,-0.014
0.007,-0.05,-0.115,-0.022,-0.002,-0.024
0.017,-0.028,-0.095,-0.019,-0.001,-0.019
0.034,-0.021,-0.041,-0.017,-0.014,-0.046
0.034,0.013,-0.071,-0.007,-0.014,-0.028
0.024,0.003,-0.042,-0.012,-0.006,-0.026
0.001,-0.003,-0.01,-0.02,0.006,-0.018
-0.032,-0.023,-0.017,-0.028,0.014,0.008
-0.035,-0.032,-0.013,-0.029,0.018,0.023
-0.027,-0.041,-0.009,-0.03,0.012,0.025
-0.02,-0.051,0.007,-0.029,0.007,0.026
-0.035,-0.062,-0,-0.039,0.007,0.043
-0.036,-0.063,-0.033,-0.04,0.009,0.052
-0.007,-0.047,-0.04,-0.038,0.01,0.045
0.01,-0.019,-0.054,-0.04,0.012,0.046
0.001,-0.009,-0.084,-0.03,0.005,0.037
-0.01,-0.012,-0.098,-0.024,-0.006,0.04
-0.007,-0.007,-0.12,-0.009,-0.018,0.032
-0.007,-0.011,-0.123,-0.003,-0.024,0.022
0.003,-0.016,-0.118,-0.005,-0.027,0.014
0.017,-0.008,-0.126,0.008,-0.038,0.014
0.01,0.002,-0.114,0.004,-0.028,0.017
0.001,-0.008,-0.092,-0.007,-0.015,0.042
-0.024,-0.036,-0.053,-0.027,0.002,0.065
-0.06,-0.064,-0.032,-0.038,0.016,0.085
-0.056,-0.064,-0.028,-0.038,0.024,0.089
-0.035,-0.047,0.032,-0.038,0.019,0.063
-0.008,-0.034,-0.02,-0.024,0.002,0.048
0.008,-0.025,-0.014,-0.015,-0.008,0.034
0.018,-0.016,-0.025,-0.006,-0.015,0.03
0.008,-0.009,-0.018,-0.014,-0.007,0.031
0.004,-0.008,-0.022,-0.014,-0.008,0.029
0.008,-0.01,-0.041,-0.009,-0.013,0.029
0.008,-0.02,-0.065,-0.014,-0.008,0.046
0.001,-0.041,-0.087,-0.02,-0.001,0.069
0.001,-0.04,-0.119,-0.019,-0.01,0.057
0.002,-0.026,-0.122,-0.011,-0.017,0.058
-0.007,-0.022,-0.147,-0.009,-0.017,0.051
-0.009,-0.031,-0.153,-0.01,-0.016,0.048
-0.005,-0.043,-0.146,-0.012,-0.014,0.048
0.005,-0.047,-0.164,-0.006,-0.018,0.045
0.02,-0.05,-0.148,0,-0.02,0.043
0.018,-0.064,-0.132,-0.009,-0.022,0.046
0.021,0,-0.069,-0.007,-0.023,-0.006
-0.014,0.043,-0.066,-0.003,-0.028,-0.014
0.003,0.064,-0.052,-0.004,-0.022,-0.016
0.02,0.064,-0.054,-0.011,-0.012,-0.013
0.014,0.049,-0.035,-0.018,-0.005,-0.004
0.014,0.02,-0.019,-0.022,0.004,0.009
0.025,0.001,-0.029,-0.022,0.005,0.011
0.03,-0.02,-0.021,-0.023,0.003,0.019
0.021,-0.032,-0.022,-0.026,0.008,0.024
0.028,-0.041,-0.044,-0.022,0.008,0.039
0.021,-0.075,-0.072,-0.02,0.008,0.058
0.001,-0.092,-0.093,-0.016,0.001,0.064
-0.014,-0.112,-0.114,-0.005,-0.011,0.071
-0.017,-0.115,-0.128,-0.006,-0.012,0.058
-0.012,-0.102,-0.156,0.003,-0.02,0.052
-0.007,-0.106,-0.168,0.006,-0.031,0.032
-0.009,-0.119,-0.147,-0.002,-0.021,0.024
-0.009,-0.114,-0.146,-0.007,-0.015,0.036
-0.005,-0.102,-0.131,-0.005,-0.011,0.029
-0.003,-0.091,-0.114,-0.005,-0.016,0.026
0.008,-0.076,-0.094,-0,-0.02,0.012
0.015,-0.063,-0.072,0.005,-0.021,0.002
0.021,-0.056,-0.026,0.001,-0.02,-0.007
0.021,-0.107,0.101,-0.006,-0.019,-0.041
0.017,-0.041,-0.008,0,-0.018,-0.012
0.01,-0.042,-0.005,0.002,-0.015,-0.01
-0.001,-0.057,-0,-0.009,-0.011,-0.004
-0.018,-0.08,0.027,-0.021,0.001,0.005
-0.022,-0.072,0.021,-0.025,0.008,0.012
-0.022,-0.069,0,-0.018,0,0.006
-0.021,-0.078,-0.029,-0.017,-0.003,0.013
-0.025,-0.078,-0.028,-0.022,-0.003,0.011
-0.014,-0.063,-0.049,-0.015,-0.012,-0.001
-0.001,-0.052,-0.072,-0.009,-0.017,-0.01
0.003,-0.05,-0.088,-0.012,-0.016,-0.011
-0.004,-0.039,-0.072,-0.014,-0.017,-0.019
0.009,-0.033,-0.059,-0.01,-0.023,-0.024
0.02,-0.025,-0.057,0.001,-0.03,-0.029
0.028,-0.02,-0.054,-0.007,-0.02,-0.025
0.027,-0.016,-0.023,-0.015,-0.01,-0.012
0.025,-0.021,0.007,-0.019,-0.011,-0.018
0.023,-0.026,0.02,-0.025,-0.002,-0.012
0.018,-0.033,0.033,-0.035,0.008,-0.002
0.019,-0.037,0.087,-0.035,0.006,0.007
0.015,-0.044,0.071,-0.024,0.006,-0.004
0.016,-0.037,0.071,-0.026,0.004,-0.013
0.017,-0.026,0.057,-0.022,-0.002,-0.022
0.029,-0.011,0.072,-0.019,-0.011,-0.036
0.013,-0.002,0.069,-0.017,-0.013,-0.042
0.017,0.011,0.04,-0.01,-0.021,-0.059
-0.005,0.021,0.009,-0.01,-0.026,-0.06
-0.02,0.016,0.003,-0.009,-0.033,-0.053
-0.02,-0.001,-0.021,-0.006,-0.029,-0.048
-0.007,-0.041,-0.031,-0.011,-0.021,-0.046
-0.01,-0.074,-0.032,-0.024,-0.011,-0.02
0.005,-0.054,-0.03,-0.028,-0.006,-0.035
0.023,-0.036,-0.029,-0.027,-0.005,-0.038
0.038,-0.007,-0.039,-0.026,-0.004,-0.048
-0.021,0.003,-0.021,-0.026,-0.002,-0.056
-0.058,-0.019,-0.007,-0.022,-0.004,-0.051
-0.034,-0.016,0.015,-0.016,-0.012,-0.069
-0.004,-0.02,0.038,-0.017,-0.014,-0.082
0.021,-0.025,0.074,-0.027,-0.01,-0.101
0.046,-0.024,0.052,-0.02,-0.002,-0.09
0.061,-0.024,0.056,-0.024,-0.001,-0.093
0.062,-0.029,0.059,-0.026,0.004,-0.097
0.046,-0.051,0.064,-0.031,0.006,-0.092
0.035,-0.077,0.076,-0.034,0.014,-0.081
0.033,-0.111,0.07,-0.039,0.016,-0.078
0.045,-0.119,0.031,-0.025,-0.003,-0.097
0.049,-0.1,0.008,-0.014,-0.017,-0.103
0.043,-0.08,-0.011,-0.004,-0.023,-0.115
0.035,-0.07,-0.051,0.005,-0.038,-0.136
0.018,-0.072,-0.054,-0.004,-0.028,-0.141
0.012,-0.057,-0.06,-0.02,-0.016,-0.139
-0.002,-0.05,-0.052,-0.025,-0.005,-0.144
-0.013,-0.041,-0.057,-0.026,-0.003,-0.145
-0.015,-0.045,-0.065,-0.016,-0.01,-0.148
-0.024,-0.058,-0.028,-0.013,-0.011,-0.175
-0.001,-0.04,-0.004,-0.012,-0.016,-0.179
0.012,-0.052,0.011,-0.005,-0.026,-0.204
0.019,-0.04,0.025,-0.011,-0.021,-0.203
0.027,-0.035,0.008,-0.006,-0.013,-0.19
0.037,-0.032,0.025,-0.012,-0.009,-0.196
0.036,-0.035,0.019,-0.022,-0.002,-0.2
0.03,-0.059,0.036,-0.03,0.005,-0.198
0.023,-0.083,0.047,-0.034,0.015,-0.192
0.015,-0.081,0.061,-0.043,0.021,-0.193
0.019,-0.074,0.046,-0.038,0.011,-0.207
0.032,-0.056,0.021,-0.027,-0.004,-0.219
0.029,-0.05,-0.004,-0.013,-0.016,-0.224
0.033,-0.046,-0.02,-0.01,-0.021,-0.233
0.035,-0.043,-0.052,-0.007,-0.029,-0.244
0.039,-0.038,-0.064,-0.005,-0.027,-0.249
0.036,-0.041,-0.077,-0.006,-0.025,-0.251
0.034,-0.041,-0.077,-0.011,-0.022,-0.259
0.033,-0.041,-0.082,-0.006,-0.026,-0.27
0.038,-0.035,-0.075,0,-0.029,-0.275
0.04,-0.032,-0.064,0.001,-0.024,-0.281
0.044,-0.031,-0.039,-0.01,-0.021,-0.286
0.036,-0.038,0.02,-0.009,-0.023,-0.314
0.028,-0.03,0.028,-0.003,-0.034,-0.311
0.024,-0.031,0.033,-0.01,-0.017,-0.299
0.024,-0.031,0.025,-0.008,-0.015,-0.315
0.022,-0.03,0.05,-0.012,-0.014,-0.314
0.025,-0.036,0.059,-0.013,-0.011,-0.321
0.025,-0.046,0.054,-0.012,-0.009,-0.319
0.011,-0.072,0.064,-0.028,0.006,-0.306
0.01,-0.081,0.065,-0.036,0.009,-0.306
0.013,-0.073,0.043,-0.028,0.003,-0.309
0.02,-0.064,0.004,-0.018,-0.008,-0.312
0.028,-0.051,-0.018,-0.009,-0.013,-0.318
0.037,-0.036,-0.034,-0.002,-0.025,-0.329
0.046,-0.031,-0.058,0.004,-0.027,-0.342
0.055,-0.029,-0.08,0.004,-0.032,-0.349
0.04,-0.045,-0.076,-0.019,-0.017,-0.347
0.017,-0.057,-0.047,-0.032,-0.007,-0.337
0.013,-0.053,-0.062,-0.024,-0.004,-0.325
-0.006,-0.052,-0.056,-0.021,0.002,-0.313
-0.002,-0.049,-0.044,-0.011,-0.005,-0.326
-0.015,-0.05,-0.021,-0.008,-0.012,-0.333
-0.014,-0.054,-0.007,-0.004,-0.012,-0.34
-0.009,-0.059,0.039,-0.012,-0.005,-0.344
0.004,-0.059,0.075,-0.023,-0.006,-0.353
0.022,-0.052,0.042,-0.015,-0.003,-0.354
0.022,-0.042,0.049,-0.024,0.002,-0.349
0.004,-0.043,0.047,-0.028,0.008,-0.343
-0.007,-0.043,0.035,-0.026,0.008,-0.345
0.006,-0.041,0.033,-0.024,0.002,-0.343
0.02,-0.034,0.015,-0.022,-0,-0.351
0.038,-0.026,-0.027,-0.017,-0.004,-0.351
0.042,-0.01,-0.052,-0.006,-0.017,-0.362
0.023,0.006,-0.054,-0.001,-0.027,-0.374
0.008,0.008,-0.071,0.001,-0.027,-0.374
-0.018,0.001,-0.094,-0.005,-0.017,-0.361
-0.025,0.01,-0.1,-0.016,-0.006,-0.357
-0.011,0.012,-0.095,-0.017,-0.003,-0.355
0.005,0,-0.087,-0.016,-0.004,-0.354
0.009,-0.023,-0.09,-0.017,-0.001,-0.346
0.021,-0.026,-0.07,-0.013,0.002,-0.392
0.032,-0.027,-0.014,-0.014,-0.007,-0.361
0.038,-0.028,-0.028,-0.004,-0.006,-0.351
0.048,-0.025,-0.002,-0.006,-0.002,-0.36
0.054,-0.022,-0.006,-0.006,-0.003,-0.363
0.018,-0.004,0.03,-0.012,-0.004,-0.38
-0.012,0.005,0.024,-0.017,0.002,-0.381
-0.018,0.018,0.023,-0.02,-0.002,-0.393
-0.019,0.018,0.017,-0.024,0.006,-0.381
-0.052,0.003,0.031,-0.029,0.012,-0.358
-0.085,0,0.003,-0.019,0.012,-0.35
-0.096,-0.008,-0.023,-0.015,0.005,-0.352
-0.088,-0.023,-0.04,-0.018,0.001,-0.359
-0.086,-0.044,-0.052,-0.009,-0.005,-0.369
-0.044,-0.055,-0.07,-0.008,-0.007,-0.357
-0.008,-0.075,-0.083,-0.012,-0.002,-0.338
0.032,-0.092,-0.09,-0.015,0.001,-0.334
0.056,-0.111,-0.087,-0.014,0.002,-0.317
0.077,-0.106,-0.099,0.001,-0.01,-0.32
0.117,-0.067,-0.096,0.005,-0.021,-0.333
0.117,-0.04,-0.091,0.01,-0.024,-0.323
0.082,-0.039,-0.063,0.01,-0.022,-0.31
0.068,-0.038,-0.038,0.005,-0.01,-0.304
0.048,-0.04,-0.006,-0.006,-0.005,-0.296
0.041,-0.041,0.017,-0.003,-0.007,-0.295
0.037,-0.055,0.003,-0.003,-0.013,-0.3
0.033,-0.065,0.015,0.004,-0.01,-0.303
0.024,-0.078,0.008,0.002,-0.011,-0.307
0.014,-0.077,0.021,0.001,-0.009,-0.311
0.008,-0.062,0.031,-0.001,-0.01,-0.31
0.023,-0.054,0.013,-0.003,-0.011,-0.311
0.024,-0.038,-0.02,0,-0.013,-0.305
0.02,-0.023,-0.051,0.005,-0.021,-0.305
0.022,-0.019,-0.065,0.006,-0.026,-0.306
0.012,-0.035,-0.087,0.003,-0.023,-0.296
-0.007,-0.048,-0.092,0.007,-0.022,-0.276
-0.016,-0.055,-0.09,0,-0.016,-0.266
-0.011,-0.05,-0.076,-0.002,-0.017,-0.25
-0.015,-0.057,-0.081,-0.002,-0.014,-0.23
-0.014,-0.067,-0.064,-0.009,-0.01,-0.285
-0.008,-0.075,-0.019,-0.019,-0.007,-0.205
-0.009,-0.067,-0.028,-0.02,-0.001,-0.183
-0.017,-0.09,0.088,-0.018,-0.012,-0.212
-0.021,-0.069,0.012,-0.002,-0.013,-0.173
-0.031,-0.07,0.05,-0.016,-0.011,-0.161
-0.036,-0.073,0.044,-0.009,-0.01,-0.157
-0.023,-0.06,0.055,0.003,-0.023,-0.161
-0.004,-0.041,0.036,0.006,-0.032,-0.159
-0.001,-0.034,0.063,-0.003,-0.025,-0.152
-0.007,-0.038,0.053,-0.001,-0.032,-0.134
0.008,-0.034,0.037,0.011,-0.043,-0.137
0.018,-0.022,0.021,0.001,-0.035,-0.121
0.003,-0.006,0.012,-0.01,-0.023,-0.095
-0.034,-0.016,-0.005,-0.017,-0.016,-0.065
-0.066,-0.035,-0.017,-0.016,-0.008,-0.04
-0.076,-0.061,-0.048,-0.02,-0.002,-0.021
-0.09,-0.082,-0.042,-0.04,0.008,0.004
-0.098,-0.09,-0.029,-0.045,0.016,0.017
-0.077,-0.077,-0.035,-0.031,0.006,0.011
-0.062,-0.077,-0.019,-0.034,0.006,0.012
-0.048,-0.075,-0.002,-0.027,-0.001,0.009
-0.033,-0.073,0.02,-0.02,-0.017,-0.022
-0.02,-0.075,0.087,-0.028,-0.007,-0.012
-0.01,-0.066,0.084,-0.018,-0.005,0.01
-0.002,-0.048,0.08,-0.012,-0.014,0.014
-0.006,-0.042,0.112,-0.02,-0.016,0.024
-0.009,-0.03,0.112,-0.011,-0.012,0.026
-0.003,-0.027,0.099,-0.009,-0.025,0.022
-0.016,-0.051,0.11,-0.02,-0.01,0.041
-0.033,-0.067,0.119,-0.04,0.006,0.051
-0.025,-0.062,0.1,-0.047,0.009,0.054
-0.021,-0.061,0.066,-0.043,0.004,0.055
-0.037,-0.061,0.057,-0.04,0.002,0.058
-0.058,-0.048,0.04,-0.028,-0.007,0.057
-0.065,-0.034,0.015,-0.025,-0.009,0.064
-0.082,-0.023,-0.003,-0.019,-0.013,0.06
-0.065,-0.019,-0.003,-0.012,-0.022,0.045
-0.047,-0.011,0.01,-0.015,-0.022,0.044
-0.034,0.005,-0.003,-0.012,-0.027,0.034
-0.029,0.011,0.006,-0.015,-0.023,0.038
-0.034,-0.002,0.023,-0.024,-0.01,0.046
-0.012,-0.011,0.051,-0.027,-0.004,0.056
0.001,-0.032,0.064,-0.035,0.01,0.074
0.007,-0.043,0.116,-0.043,0.017,0.07
0.017,-0.044,0.18,-0.045,0.02,0.085
0.025,-0.043,0.11,-0.027,0.01,0.087
-0.031,-0.049,0.102,-0.016,-0.001,0.077
-0.057,-0.07,0.093,-0.029,0.001,0.076
-0.056,-0.076,0.114,-0.025,0.002,0.07
-0.02,-0.058,0.088,-0.011,-0.02,0.054
0.008,-0.047,0.051,0.002,-0.032,0.044
0.003,-0.035,0.011,0.01,-0.044,0.035
0.017,-0.024,0.001,0.01,-0.046,0.036
0.028,-0.029,-0.012,0.006,-0.038,0.033
0.026,-0.044,-0.034,-0.006,-0.025,0.049
0.006,-0.07,-0.054,-0.019,-0.009,0.055
-0.034,-0.081,-0.042,-0.038,0.008,0.054
-0.061,-0.075,-0.038,-0.039,0.012,0.05
-0.064,-0.065,-0.064,-0.025,-0.001,0.031
-0.039,-0.057,-0.059,-0.021,-0.009,0.011
0,-0.074,0.012,-0.018,-0.017,-0.026
0.012,-0.06,-0.024,-0.013,-0.009,0.001
0.043,-0.064,-0.028,-0.01,-0.009,-0.001
0.053,-0.057,-0.012,-0.011,-0.008,-0.004
0.052,-0.059,0.033,-0.018,-0.005,-0.01
0.054,-0.065,0.007,-0.015,-0.002,-0.007
0.068,-0.066,0.006,-0.01,-0.005,-0.011
0.064,-0.07,-0.015,-0.006,-0.008,-0.007
0.051,-0.074,0.004,-0.016,-0.002,-0.006
0.046,-0.069,0.001,-0.01,-0.002,-0.012
0.049,-0.057,-0.028,-0.007,-0.02,-0.034
0.046,-0.053,-0.06,-0.004,-0.022,-0.044
0.038,-0.045,-0.074,0,-0.025,-0.045
0.037,-0.048,-0.094,-0.003,-0.021,-0.055
0.024,-0.05,-0.116,-0.003,-0.02,-0.059
0.018,-0.041,-0.144,-0.004,-0.022,-0.059
0.005,-0.044,-0.143,-0.004,-0.019,-0.067
0.004,-0.047,-0.144,-0.008,-0.016,-0.073
0.008,-0.037,-0.154,0.001,-0.015,-0.079
0.005,-0.037,-0.137,-0.01,-0.012,-0.083
0.013,-0.032,-0.117,-0.01,-0.013,-0.082
0.01,-0.033,-0.094,-0.004,-0.015,-0.073
0,-0.05,-0.074,-0.006,-0.008,-0.067
-0.01,-0.068,-0.072,-0.011,-0.003,-0.062
-0.01,-0.062,-0.064,-0.013,-0.002,-0.061
-0.01,-0.046,-0.07,-0.01,-0.004,-0.059
-0.007,-0.043,-0.072,-0.006,-0.007,-0.056
-0.009,-0.041,-0.068,-0.009,-0.005,-0.058
-0.015,-0.043,-0.059,-0.015,0.004,-0.045
-0.003,-0.028,-0.063,-0.014,-0.007,-0.034
0.009,-0.014,-0.083,-0.009,-0.008,-0.023
0.017,-0.008,-0.109,-0.002,-0.014,-0.015
0.015,0.002,-0.123,0.008,-0.02,-0.006
0.017,0.01,-0.166,0.014,-0.028,-0.001
0.011,-0.011,-0.18,0.009,-0.021,0.009
0.018,-0.018,-0.192,0.004,-0.019,0.015
0.01,-0.024,-0.183,-0.005,-0.013,0.03
-0.015,-0.04,-0.172,-0.017,0.002,0.052
-0.036,-0.062,-0.174,-0.022,0.013,0.068
-0.036,-0.067,-0.125,-0.037,0.018,0.042
-0.022,-0.053,-0.103,-0.027,0.005,0.046
-0.029,-0.036,-0.132,-0.01,-0.005,0.059
-0.061,-0.051,-0.103,-0.015,0.004,0.061
-0.072,-0.057,-0.088,-0.012,0.002,0.071
-0.066,-0.051,-0.029,-0.016,0.003,0.073
-0.048,-0.036,-0.048,-0.005,0.003,0.075
-0.028,-0.035,-0.051,0.001,-0.009,0.065
-0.011,-0.035,-0.055,0.004,-0.017,0.051
-0.007,-0.048,-0.047,-0.011,-0.005,0.05
-0.006,-0.057,-0.044,-0.017,0.002,0.06
0,-0.049,-0.063,-0.011,-0.001,0.058
0.001,-0.045,-0.086,-0.005,-0.005,0.062
0.01,-0.04,-0.097,0.001,-0.016,0.054
-0.026,-0.036,-0.108,-0.004,-0.014,0.066
-0.055,-0.026,-0.128,0.003,-0.014,0.068
-0.065,-0.027,-0.147,0.008,-0.018,0.075
-0.063,-0.029,-0.143,-0.009,-0.013,0.08
-0.038,-0.031,-0.121,-0.017,-0.008,0.084
-0.005,-0.032,-0.122,-0.014,-0.012,0.078
0.034,-0.015,-0.122,-0.013,-0.011,0.074
0.052,-0.01,-0.102,-0.008,-0.016,0.067
0.063,-0.012,-0.061,-0.01,-0.015,0.068
0.064,-0.019,-0.028,-0.011,-0.006,0.064
0.057,-0.04,-0.023,-0.014,0.001,0.078
0.057,-0.054,-0.011,-0.018,0.007,0.076
0.034,-0.063,-0.011,-0.011,0.001,0.085
-0,-0.073,0.02,-0.017,0.003,0.081
-0.002,-0.073,0.029,-0.018,0.006,0.071
0.008,-0.057,0.021,-0.016,-0.003,0.055
-0.001,-0.063,0.023,-0.017,-0.013,0.05
-0.026,-0.072,0.012,-0.018,-0.01,0.058
-0.031,-0.082,-0.01,-0.018,-0.003,0.064
-0.028,-0.067,-0.032,-0.024,-0.003,0.053
-0.009,-0.049,-0.048,-0.008,-0.015,0.033
0.004,-0.037,-0.054,0.001,-0.02,0.024
0.017,-0.039,-0.083,0.002,-0.024,0.016
0.016,-0.034,-0.076,0.003,-0.031,0.006
0.016,-0.031,-0.057,0,-0.028,0.014
0.017,-0.032,-0.053,0.002,-0.026,0.014
0.02,-0.029,-0.044,0.001,-0.027,0.01
0.026,-0.049,-0.01,0.007,-0.037,-0.02
0.041,-0.03,0.029,0.004,-0.037,-0.003
0.033,-0.027,0.019,-0.012,-0.019,0.024
0.03,-0.022,0.033,-0.006,-0.022,0.025
0.031,-0.017,0.033,-0.002,-0.023,0.026
0.035,-0.006,0.061,-0.008,-0.017,0.015
0.021,-0.004,0.063,-0.007,-0.018,0.016
0.013,0.009,0.061,0,-0.018,0.003
-0.005,0.011,0.068,0.001,-0.017,0.008
-0.019,0.008,0.062,-0.003,-0.016,0.007
-0.021,-0.014,0.024,-0.006,-0.013,0.02
-0.029,-0.035,-0.005,-0.035,0.005,0.044
-0.079,-0.056,-0.012,-0.064,0.033,0.053
-0.129,-0.029,-0.017,-0.063,0.029,0.033
-0.137,-0.01,-0.037,-0.047,0.016,0.013
-0.111,-0.007,-0.052,-0.041,0.006,-0.001
-0.102,-0.005,-0.07,-0.036,-0.003,-0.01
-0.091,-0.006,-0.056,-0.024,-0.012,-0.012
-0.073,-0.012,-0.06,-0.014,-0.012,-0.011
-0.025,-0.022,-0.052,-0.021,-0.007,0
0.033,-0.016,-0.029,-0.021,-0.006,-0.003
0.07,-0.018,-0.013,-0.025,0.001,0.003
0.093,-0.025,0.008,-0.034,0.009,0.016
0.094,-0.046,0.026,-0.041,0.022,0.033
0.086,-0.052,0.029,-0.029,0.012,0.033
0.08,-0.052,0.051,-0.019,0,0.018
0.084,-0.054,0.054,-0.015,-0.006,0.009
0.076,-0.047,0.03,-0.005,-0.016,0
0.054,-0.054,0.046,-0.014,-0.016,0.003
0.038,-0.058,0.038,-0.005,-0.018,0.001
0.015,-0.052,0.011,0.006,-0.031,0.004
-0.006,-0.049,-0.022,0.008,-0.033,0.005
-0.015,-0.039,-0.033,0.007,-0.035,-0.011
-0.01,-0.029,-0.044,0.004,-0.034,-0.022
-0.002,-0.034,-0.064,-0.001,-0.025,-0.022
0.005,-0.036,-0.068,-0.013,-0.018,-0.009
0.001,-0.044,-0.062,-0.017,-0.015,-0.007
0.026,-0.025,-0.056,-0.013,-0.018,-0.015
0.045,-0.008,-0.078,0.002,-0.031,-0.023
0.033,-0.001,-0.079,0.007,-0.034,-0.016
0.034,0.003,-0.054,0.008,-0.032,-0.007
0.036,0.012,-0.04,0.01,-0.034,-0.007
0.019,0.01,-0.028,0.009,-0.032,-0.005
0.001,-0.014,-0.003,0.005,-0.022,0.007
-0.012,-0.026,0.049,-0.004,-0.019,0.019
-0.024,-0.041,0.047,-0.006,-0.012,0.024
-0.012,-0.051,0.051,-0.015,-0.007,0.016
-0.009,-0.075,0.047,-0.027,0.005,0.034
-0.03,-0.09,0.065,-0.042,0.021,0.06
-0.029,-0.076,0.07,-0.041,0.023,0.06
-0.011,-0.06,0.055,-0.045,0.015,0.052
-0.002,-0.055,0.011,-0.03,0.003,0.05
-0.001,-0.049,0.007,-0.026,-0.002,0.053
0,-0.036,-0.006,-0.019,-0.011,0.049
-0.008,-0.036,-0.03,-0.011,-0.016,0.047
-0.009,-0.036,-0.051,-0.007,-0.019,0.046
-0.019,-0.035,-0.035,-0.01,-0.02,0.04
-0.028,-0.033,-0.012,-0.012,-0.019,0.04
-0.021,-0.028,-0.039,-0.003,-0.028,0.032
-0.007,-0.031,-0.028,-0.005,-0.027,0.027
0.007,-0.029,0.027,-0.011,-0.027,0.029
0.013,-0.016,0.035,-0.005,-0.028,0.025
0.018,-0.01,0.043,0.001,-0.027,0.025
0.016,-0.005,0.083,-0.014,-0.013,0.028
0.014,-0.01,0.111,-0.012,-0.019,0.026
0.03,-0.015,0.123,-0.012,-0.022,0.019
0.042,-0.011,0.136,-0.01,-0.027,0.011
0.049,-0.017,0.131,-0.015,-0.025,0.015
0.033,-0.026,0.15,-0.026,-0.007,0.028
0.025,-0.016,0.143,-0.028,0.001,0.029
0.009,-0.026,0.124,-0.033,0.003,0.035
-0.054,-0.064,0.107,-0.032,0.003,0.049
-0.093,-0.086,0.096,-0.034,0.004,0.056
-0.103,-0.078,0.08,-0.033,0.004,0.05
-0.097,-0.073,0.063,-0.033,0.005,0.05
-0.08,-0.067,0.047,-0.026,-0.003,0.051
-0.038,-0.052,0.043,-0.017,-0.021,0.041
0.002,-0.03,0.07,-0.012,-0.024,0.033
0.027,-0.003,0.044,-0.004,-0.027,0.029
0.041,0.005,0.049,-0.007,-0.029,0.03
0.049,0.016,0.079,-0.011,-0.022,0.038
0.065,0.029,0.085,-0.009,-0.016,0.045
0.056,0.005,0.112,-0.016,-0.016,0.04
0.045,-0.011,0.147,-0.026,-0.009,0.043
0.024,-0.019,0.161,-0.032,0.003,0.053
0.017,-0.006,0.155,-0.027,0.005,0.056
-0.011,-0.011,0.151,-0.018,-0.005,0.053
-0.049,-0.041,0.151,-0.026,0.001,0.053
-0.073,-0.071,0.174,-0.042,0.022,0.072
-0.055,-0.06,0.158,-0.029,0.007,0.053
-0.032,-0.052,0.12,-0.017,-0.009,0.041
-0.014,-0.05,0.087,-0.015,-0.02,0.038
0.008,-0.045,0.074,-0.02,-0.009,0.046
0.031,-0.034,0.058,-0.012,-0.017,0.033
0.039,-0.028,0.036,-0.011,-0.019,0.033
0.034,-0.025,0.007,-0.01,-0.018,0.04
0.026,-0.028,0.006,-0.016,-0.008,0.043
0.025,-0.034,0.03,-0.02,-0.003,0.042
0.033,-0.031,0.023,-0.014,-0.007,0.036
0.029,-0.034,0.024,-0.005,-0.008,0.034
0.022,-0.036,0.03,0,-0.021,0.025
0.016,-0.029,0.047,0.003,-0.023,0.02
0.015,-0.032,0.068,-0.005,-0.019,0.016
0.01,-0.041,0.105,-0.007,-0.019,0.011
0.01,-0.05,0.103,-0.004,-0.025,0.002
0.015,-0.047,0.095,-0.006,-0.021,-0.002
0.018,-0.04,0.101,-0.003,-0.023,-0.015
0.019,-0.037,0.09,-0.006,-0.017,-0.019
0.014,-0.042,0.088,-0.012,-0.012,-0.02
0.009,-0.038,0.079,-0.017,-0.008,-0.013
-0.004,-0.04,0.066,-0.012,-0.002,-0.016
-0.005,-0.052,0.043,-0.008,-0.021,-0.032
-0.001,-0.048,0.015,0.001,-0.035,-0.038
0.009,-0.039,-0.015,0.008,-0.043,-0.044
0.008,-0.026,-0.014,0.006,-0.03,-0.038
0.018,-0.013,-0.045,0.006,-0.029,-0.039
0.021,-0.002,-0.051,0.001,-0.019,-0.039
0.003,-0.012,-0.022,-0.019,-0.001,-0.026
-0.008,-0.03,-0.022,-0.035,0.008,-0.026
-0.007,-0.04,-0.031,-0.036,0.013,-0.036
0.003,-0.045,0.012,-0.026,-0.005,-0.062
0.014,-0.025,-0.023,-0.011,-0.015,-0.057
0.02,-0.019,0,-0.001,-0.022,-0.066
0.023,-0.018,0.015,0.001,-0.022,-0.067
0.013,-0.023,0.04,-0.008,-0.013,-0.059
-0.02,-0.025,0.036,-0.006,-0.01,-0.05
-0.062,-0.037,0.05,-0.028,0.006,-0.055
-0.07,-0.041,0.036,-0.031,0.007,-0.068
-0.074,-0.053,0.039,-0.028,0.015,-0.066
-0.054,-0.063,0.033,-0.031,0.012,-0.064
-0.036,-0.05,0.014,-0.029,0.001,-0.072
-0.004,-0.026,-0.03,-0.01,-0.011,-0.073
0.021,-0.01,-0.062,0.002,-0.025,-0.087
0.053,0.013,-0.076,0.015,-0.039,-0.098
0.071,0.018,-0.102,0.019,-0.045,-0.115
0.056,0.013,-0.117,0.013,-0.04,-0.113
-0.025,-0.02,-0.097,-0.017,-0.01,-0.085
-0.068,-0.046,-0.095,-0.05,0.024,-0.054
-0.088,-0.046,-0.094,-0.037,0.016,-0.065
-0.097,-0.047,-0.082,-0.028,0.003,-0.075
-0.075,-0.049,-0.067,-0.019,-0.005,-0.082
-0.025,-0.048,-0.007,-0.013,-0.019,-0.116
-0.016,-0.021,-0.004,-0.019,-0.009,-0.095
-0.023,-0.023,-0.021,-0.022,-0,-0.08
-0.021,-0.042,0.047,-0.035,0.009,-0.082
0.001,-0.028,0.007,-0.027,0.009,-0.073
0.018,-0.02,0.011,-0.019,0.004,-0.083
0.003,-0.031,0.009,-0.027,0.008,-0.084
0.012,-0.033,0.023,-0.036,0.013,-0.09
0.034,-0.021,0.023,-0.031,0.011,-0.087
0.045,-0.013,-0.01,-0.022,0.004,-0.089
0.054,-0.02,-0.031,-0.027,-0.002,-0.093
0.053,-0.029,-0.052,-0.023,0.001,-0.091
0.075,-0.019,-0.073,-0.012,-0.01,-0.101
0.091,-0.017,-0.091,-0.004,-0.017,-0.105
0.116,-0.013,-0.131,0.004,-0.024,-0.105
0.113,-0.018,-0.125,0.007,-0.025,-0.111
0.111,-0.017,-0.104,0.012,-0.031,-0.116
0.114,-0.018,-0.107,0.023,-0.041,-0.122
0.095,-0.035,-0.099,0.018,-0.037,-0.117
0.062,-0.055,-0.069,-0.004,-0.021,-0.1
0.03,-0.058,-0.032,-0.015,-0.009,-0.085
0.003,-0.069,-0.039,-0.019,0.005,-0.075
0.004,-0.063,-0.026,-0.021,0.004,-0.076
0.013,-0.053,0.02,-0.012,-0.014,-0.094
0.033,-0.024,-0.019,0.008,-0.032,-0.118
0.037,-0.024,-0.016,0.024,-0.044,-0.13
0.033,-0.028,-0.011,0.025,-0.05,-0.142
0.034,-0.035,0.017,0.03,-0.053,-0.152
0.055,-0.02,0.015,0.032,-0.055,-0.166
0.064,-0.004,0.004,0.01,-0.039,-0.168
0.013,-0.017,-0.021,-0.008,-0.014,-0.127
-0.062,-0.046,-0.034,-0.027,0.018,-0.079
-0.071,-0.051,-0.044,-0.041,0.033,-0.079
-0.067,-0.056,-0.055,-0.043,0.035,-0.089
-0.048,-0.047,-0.076,-0.041,0.019,-0.1
-0.057,-0.041,-0.068,-0.036,0.016,-0.106
-0.05,-0.053,-0.048,-0.034,0.012,-0.114
-0.017,-0.034,-0.067,-0.016,-0.008,-0.122
-0.01,-0.035,-0.061,-0.017,-0.013,-0.124
-0.02,-0.037,-0.046,-0.013,-0.005,-0.111
-0.015,-0.048,0,-0.006,-0.002,-0.116
-0.001,-0.034,-0.046,0.014,-0.006,-0.109
-0.004,-0.05,-0.032,0.007,0.002,-0.102
-0.018,-0.052,0.001,0.009,0,-0.092
-0.017,-0.061,0.031,0.016,-0.008,-0.097
-0.01,-0.075,0.051,-0.01,-0.011,-0.097
-0.008,-0.062,0.078,-0.02,-0.007,-0.103
-0.002,-0.052,0.087,-0.003,-0.021,-0.105
0.008,-0.044,0.104,-0.024,-0.016,-0.107
0.026,-0.02,0.075,-0.005,-0.041,-0.134
0.028,0.002,0.034,-0.004,-0.031,-0.124
0.026,0.004,0.011,0.005,-0.025,-0.118
0.035,-0.008,0,0.009,-0.026,-0.12
0.043,-0.015,-0.007,-0.018,-0.022,-0.118
0.034,-0.019,-0.041,-0.028,-0.021,-0.119
0.022,-0.003,-0.04,-0.018,-0.02,-0.121
0.001,-0.037,-0.01,-0.033,-0.002,-0.107
0.006,-0.044,-0.024,-0.024,-0.018,-0.12
0.003,-0.042,-0.029,-0.027,-0.008,-0.114
0.011,-0.031,0.009,-0.021,-0.008,-0.152
0.024,-0.01,0.021,-0.007,-0.016,-0.126
0.002,-0.017,0.149,-0.044,0.01,-0.152
-0.079,-0.051,0.05,-0.033,0.002,-0.123
-0.13,-0.09,0.087,-0.043,0.014,-0.113
-0.119,-0.087,0.078,-0.032,0.012,-0.117
-0.091,-0.09,0.084,-0.027,0,-0.131
-0.061,-0.065,0.076,-0.004,-0.031,-0.154
-0.042,-0.042,0.082,-0,-0.036,-0.167
-0.026,-0.009,0.065,0.008,-0.037,-0.172
0.002,0.021,0.043,0.013,-0.044,-0.18
0.023,0.024,0.013,-0.001,-0.034,-0.155
0.035,0.037,0.01,-0.022,-0.01,-0.129
0.061,0.035,-0.002,-0.035,0.014,-0.1
0.084,0.01,-0.024,-0.034,0.018,-0.099
0.039,-0.025,-0.046,-0.046,0.017,-0.106
-0.01,-0.043,-0.048,-0.033,0.01,-0.127
-0.016,-0.034,-0.055,-0.018,0.002,-0.139
-0.04,-0.049,-0.066,-0.022,0.008,-0.132
-0.068,-0.074,-0.053,-0.042,0.025,-0.124
-0.056,-0.075,-0.033,-0.035,0.017,-0.136
-0.01,-0.056,0.002,-0.021,0.002,-0.153
-0.003,-0.059,-0.007,-0.014,-0.006,-0.16
-0.005,-0.069,-0.006,-0.019,-0.004,-0.159
0.022,-0.086,0.049,-0.032,0.004,-0.155
0.057,-0.065,0.019,-0.025,0.007,-0.166
0.083,-0.058,0.006,-0.026,0.019,-0.184
0.095,-0.045,0.002,-0.014,-0.001,-0.192
0.091,-0.058,0.028,-0.016,-0.002,-0.187
0.089,-0.066,0.03,-0.026,0.006,-0.177
0.088,-0.073,0.007,-0.034,0.013,-0.167
0.077,-0.061,-0.05,-0.025,0.014,-0.16
0.079,-0.026,-0.114,-0.003,-0.004,-0.176
0.094,-0.003,-0.17,0.019,-0.017,-0.19
0.087,-0.016,-0.169,0.021,-0.02,-0.195
0.075,-0.016,-0.192,0.02,-0.028,-0.196
0.069,-0.029,-0.182,0.005,-0.02,-0.201
0.065,-0.018,-0.168,0.018,-0.023,-0.214
0.056,-0.021,-0.14,0.005,-0.029,-0.219
0.054,-0.022,-0.122,-0.003,-0.022,-0.225
0.039,-0.033,-0.085,-0.01,-0.012,-0.226
0.025,-0.03,-0.054,0.006,-0.027,-0.244
0.009,-0.039,-0.041,-0.016,-0.011,-0.24
0.011,-0.019,-0.013,-0.017,-0.008,-0.253
0.018,-0.024,-0.009,-0.016,-0.003,-0.251
0.007,-0.022,-0.002,-0.02,0.011,-0.234
-0.007,-0.03,0.011,-0.007,0.01,-0.221
-0.024,-0.042,0.009,-0.023,0.02,-0.206
-0.049,-0.044,0.028,-0.028,0.021,-0.201
-0.085,-0.062,0.033,-0.04,0.027,-0.187
-0.089,-0.066,0.023,-0.063,0.032,-0.187
-0.063,-0.05,0.003,-0.048,0.022,-0.199
-0.019,-0.014,-0.023,-0.02,0.005,-0.211
0.005,-0.015,-0.036,-0.006,-0.012,-0.215
0.02,-0.02,-0.058,-0.003,-0.019,-0.206
0.024,-0.024,-0.078,-0.008,-0.011,-0.187
0.022,-0.026,-0.055,-0.031,0.009,-0.166
0.025,-0.016,-0.041,-0.024,0.024,-0.141
0.027,-0.005,-0.072,-0.005,0.003,-0.134
0.038,0.01,-0.092,0.02,-0.008,-0.128
0.055,0.013,-0.06,0.018,-0.021,-0.131
0.037,0,-0.009,0.029,-0.036,-0.131
0.009,-0.028,0.016,0.012,-0.035,-0.125
-0.024,-0.031,0.042,0.001,-0.027,-0.119
-0.058,-0.019,0.077,-0.02,-0.007,-0.096
-0.09,-0.019,0.09,-0.015,-0.005,-0.076
-0.088,-0.008,0.089,-0.012,-0.012,-0.066
-0.063,-0.009,0.095,-0.019,-0.003,-0.052
-0.042,-0.017,0.111,-0.013,-0.005,-0.035
-0.034,-0.019,0.1,-0.025,0.011,-0.011
-0.032,-0.01,0.066,-0.016,0.005,-0.006
-0.047,-0.002,0.041,-0.013,0.011,-0.005
-0.097,-0.021,0.027,0.001,0,-0.002
-0.117,-0.058,0.035,-0.012,0.003,0
-0.105,-0.041,-0.004,0.007,-0.019,-0.024
-0.116,0.003,-0.057,0.032,-0.042,-0.035
-0.106,0.006,-0.045,0.011,-0.037,-0.039
-0.105,-0.006,-0.009,-0.017,-0.017,-0.032
-0.116,-0.016,-0.019,-0.026,0.001,-0.012
-0.102,-0.025,-0.013,-0.041,0.024,0.013
-0.067,-0.02,0.02,-0.046,0.02,0.03
-0.045,-0.005,0.035,-0.033,0.008,0.042
-0.004,0.032,0.048,-0.03,0.014,0.045
0.034,0.039,0.084,-0.036,0.021,0.053
0.068,0.077,0.093,-0.028,0.005,0.05
0.098,0.094,0.117,-0.029,-0.001,0.048
0.094,0.052,0.119,-0.066,0.029,0.078
0.077,0.03,0.119,-0.07,0.025,0.081
0.077,0.014,0.119,-0.048,0.01,0.089
0.085,-0.003,0.092,-0.015,-0.009,0.084
0.102,-0.004,0.06,0.003,-0.033,0.068
0.069,-0.054,0.058,-0.044,-0.014,0.079
0.075,-0.02,0.02,-0.027,-0.006,0.092
0.062,-0.007,-0.026,-0.012,-0.01,0.105
0.048,0.009,-0.047,0.014,-0.031,0.088
0.056,-0.005,-0.052,-0.002,-0.032,0.079
0.043,-0.003,-0.038,-0.004,-0.032,0.098
0.037,0.002,-0.034,0.019,-0.041,0.094
0.047,0.034,-0.063,0.027,-0.057,0.089
-0.009,0.003,-0.044,-0.013,-0.012,0.112
-0.024,-0.007,-0.029,-0.009,-0.012,0.107
-0.034,-0.021,-0.004,-0.01,-0.038,0.089
-0.024,-0.01,0.047,-0.005,-0.034,0.061
-0.032,-0.003,0.069,-0.004,-0.024,0.089
-0.047,0.004,0.028,0.007,-0.016,0.119
-0.046,-0.016,0.055,0.001,0.002,0.136
-0.036,-0.04,0.06,0.006,0.006,0.152
-0.032,-0.071,0.079,-0.031,0.026,0.165
-0.017,-0.042,0.103,-0.048,0.004,0.135
0.014,-0.011,0.091,-0.062,0.027,0.113
0.043,-0.001,0.061,-0.064,0.025,0.079
0.047,-0.026,0.032,-0.064,-0.009,0.084
0.04,-0.026,0.031,-0.059,0.003,0.087
0.031,0.013,-0.028,-0.001,-0.043,0.059
0.037,0.044,-0.063,0.074,-0.127,0.043
0.024,0.022,-0.083,0.049,-0.095,0.082
0.011,0.012,-0.07,0.011,-0.073,0.099
0.018,0.021,-0.045,0.023,-0.057,0.091
0.018,0.015,-0.033,-0.013,0.001,0.111
0.02,0.023,-0.022,-0.049,0.009,0.11
0.009,0.001,-0.011,-0.076,0.031,0.124
0,0.057,-0.02,-0.003,-0.021,0.066
-0.005,0.083,-0.035,0.089,-0.083,0.04
-0.042,0.005,0.05,-0.016,0.021,0.105
-0.092,-0.074,0.078,-0.137,0.074,0.138
-0.1,-0.039,0.089,-0.098,-0.009,0.089
-0.096,0.024,0.068,-0.015,-0.042,0.048
-0.076,0.056,0.041,0.032,-0.065,0.037
-0.078,0.02,0.065,-0.048,0.007,0.073
-0.064,0.012,0.045,-0.035,0.013,0.082
-0.016,0.026,0.017,-0.008,-0.033,0.044
0.037,0.021,0.003,-0.008,-0.089,0.024
0.062,-0.006,0.017,-0.032,-0.047,0.049
0.089,0.017,-0.016,-0.007,-0.038,0.055
0.078,-0.009,-0.018,0.012,-0.072,0.075
0.085,-0.008,-0.05,0.012,-0.067,0.076
0.071,-0.043,-0.044,-0.019,-0.023,0.093
0.034,-0.03,-0.025,-0.039,0.023,0.1
0.014,0.044,-0.125,0.024,0.025,0.112
-0.046,0.029,-0.1,-0.008,0.02,0.109
-0.074,-0.011,-0.067,0.014,-0.033,0.073
-0.059,0.006,-0.031,0.04,-0.07,0.03
-0.014,0.06,-0.048,0.094,-0.122,-0.018
-0.061,0.003,0.041,0.015,-0.097,0.006
-0.092,0.019,0.068,-0.009,-0.048,0.012
-0.095,0.004,0.117,-0.031,0.001,0.025
-0.051,0.026,0.136,-0.024,-0.02,-0.008
-0.052,-0.021,0.149,-0.068,0.008,0.003
-0.049,-0.038,0.142,-0.088,0.042,0.017
-0.042,-0.047,0.112,-0.08,0.053,0.022
-0.036,-0.002,0.092,-0.043,0.009,-0.022
-0.016,0.009,0.087,-0.056,0.006,-0.038
-0.007,0.043,0.065,-0.041,0.003,-0.041
0.029,0.057,0.041,-0.026,-0.008,-0.036
0.044,0.071,0.035,-0.035,-0.004,-0.018
0.058,0.082,0.017,-0.038,0.017,-0.007
0.102,0.09,0.006,-0.027,0.004,-0.022
0.143,0.079,0.012,-0.014,-0.011,-0.043
0.166,0.063,0.009,0.001,-0.031,-0.069
0.136,0.013,0.015,-0.011,-0.02,-0.046
0.056,-0.053,0.069,-0.057,0.017,0.003
-0.027,-0.065,0.101,-0.061,0.047,0.025
-0.108,-0.091,0.099,-0.037,0.039,0.009
-0.12,-0.103,0.12,-0.034,0.029,-0.016
-0.106,-0.099,0.12,-0.023,0.016,-0.04
-0.106,-0.094,0.124,-0.017,0.01,-0.051
-0.058,-0.081,0.108,0.008,-0.02,-0.076
-0.016,-0.103,0.139,-0.005,-0.014,-0.073
0.028,-0.108,0.166,-0.036,0.01,-0.07
0.084,-0.037,0.123,-0.018,0.002,-0.078
0.115,0.002,0.081,-0.03,0.015,-0.077
0.136,0.028,0.054,-0.023,-0.002,-0.082
0.14,0.04,0.03,0.004,-0.023,-0.065
0.139,0.079,-0.001,0.005,-0.014,-0.053
0.128,0.069,-0.011,0.024,-0.021,-0.07
0.104,0.047,-0.028,0.045,0.001,-0.054
0.097,0.055,-0.035,0.071,-0.003,-0.092
0.096,0.069,-0.013,0.056,-0.043,-0.138
0.084,0.087,-0.059,0.016,0,-0.125
0.07,0.082,-0.104,0.085,-0.05,-0.158
0.038,-0.017,-0.05,0.142,-0.107,-0.164
-0.043,-0.098,0,0.089,-0.043,-0.094
-0.032,-0.068,-0.014,0.12,-0.055,-0.176
0.011,-0.002,-0.057,0.179,-0.145,-0.184
0.02,-0.028,0.001,0.103,-0.096,-0.166
-0.019,-0.094,0.079,-0.036,0.003,-0.11
-0.009,-0.039,0.114,-0.12,0.062,-0.127
0.055,0.052,0.084,-0.067,-0.021,-0.219
0.044,0.054,0.13,-0.11,-0.005,-0.192
0.031,0.078,0.116,-0.08,-0.007,-0.182
0.031,0.089,0.107,-0.073,0.004,-0.177
0.034,0.074,0.082,-0.055,-0.006,-0.168
0.017,0.067,0.032,-0.036,0.002,-0.152
-0.02,0.018,0.005,-0.046,0.026,-0.109
-0.035,0.02,-0.041,-0.039,0.047,-0.093
-0.03,0.048,-0.105,0.004,0.036,-0.1
-0.025,0.009,-0.081,0.022,-0.001,-0.103
-0.05,-0.065,-0.024,-0.031,0.042,-0.048
-0.041,-0.059,-0.02,-0.096,0.062,-0.065
-0.011,0.026,-0.051,-0.042,0.036,-0.07
0.023,0.104,0.001,-0.026,-0,-0.14
0.033,0.116,0.001,0.023,-0.071,-0.148
0.014,0.099,-0.044,0.065,-0.056,-0.132
-0.036,0.039,-0.028,0.077,-0.059,-0.105
-0.051,0.044,0.004,0.105,-0.059,-0.084
-0.035,0.049,-0.025,0.101,-0.041,-0.109
-0.003,0.043,-0.016,0.082,-0.051,-0.13
0.016,0.045,0.018,0.031,-0.038,-0.131
-0.014,0.019,0.103,-0.034,-0.038,-0.127
-0.077,0.037,0.106,-0.059,-0.037,-0.115
-0.09,0.038,0.09,-0.104,-0.002,-0.101
-0.09,0.011,0.083,-0.13,0.022,-0.089
-0.078,-0.008,0.078,-0.156,0.064,-0.058
-0.052,0.015,0.052,-0.126,0.062,-0.06
-0.014,0.052,-0.007,-0.081,0.058,-0.07
0.017,0.061,-0.072,-0.038,0.029,-0.084
0.044,0.048,-0.057,-0.026,-0.009,-0.1
0.054,-0.006,-0.012,-0.074,0.01,-0.064
0.056,-0.018,-0.006,-0.053,0.009,-0.053
0.062,-0.035,-0.025,-0.029,0.01,-0.037
0.049,-0.031,-0.01,-0.036,0.032,-0.008
0.035,-0.052,0.069,-0.057,0.041,-0.013
0.041,-0.022,0.06,-0.065,0.021,-0.033
0.038,-0.022,0.031,-0.019,-0.007,-0.014
0.006,-0.049,0.042,0.032,-0.032,-0.008
0.021,-0.011,0.004,0.125,-0.084,-0.055
0.026,0.004,0.006,0.07,0.011,-0.053
-0,-0.003,0.005,-0.009,0.052,-0.059
-0.051,-0.006,0.04,-0.065,0.08,-0.052
-0.056,0.017,0.015,-0.004,0.006,-0.087
-0.071,0.087,-0.047,0.021,-0.005,-0.093
-0.097,0.037,-0.08,0.065,-0.029,-0.064
-0.092,0.002,-0.071,0.067,-0.082,-0.079
-0.073,-0.003,-0.089,0.073,-0.091,-0.067
-0.048,0.004,-0.108,0.106,-0.09,-0.064
-0.003,-0.005,-0.123,0.098,-0.105,-0.101
0.013,-0.059,-0.077,-0.028,-0.007,-0.076
0.017,-0.118,0.04,-0.095,0.001,-0.04
0.027,-0.075,0.038,-0.068,-0.013,-0.018
0.087,0.047,-0.024,-0.058,-0.02,-0.08
0.101,0.026,-0.008,0.034,-0.073,-0.113
0.1,0.004,-0.032,0.049,-0.001,-0.047
0.068,-0.047,-0.01,-0.037,0.089,-0.019
0.042,-0.032,-0.045,0.028,-0.003,-0.05
0.039,-0.06,0.06,0.057,-0.078,-0.108
0.074,0.045,-0.052,0.213,-0.162,-0.133
0.043,0.016,-0.077,0.1,-0.048,-0.088
0.015,-0.006,-0.033,-0.01,0.047,-0.079
-0.019,-0.092,0.083,-0.014,-0.014,-0.08
0.004,-0.017,0.106,0.022,-0.058,-0.13
0.026,-0.014,0.068,0.053,-0.048,-0.078
0.014,-0.062,0.04,0.04,0.004,-0.024
-0.005,-0.133,0.061,-0.013,0.02,0.012
-0.005,-0.023,-0.007,-0.111,0.109,0.053
0.006,0.029,-0.046,-0.215,0.233,0.058
0.04,0.15,-0.099,-0.205,0.194,-0.003
0.117,0.203,-0.13,0.027,-0.129,-0.218
0.107,0.167,-0.073,0.021,-0.155,-0.233
-0.013,0.084,0,-0.067,-0.064,-0.15
-0.096,0,0.023,-0.053,-0.07,-0.109
-0.154,-0.058,0.084,-0.125,-0.002,-0.042
-0.163,-0.081,0.125,-0.026,-0.02,-0.053
-0.083,-0.002,0.08,0.018,-0.014,-0.075
-0.004,0.023,0.049,0.015,0.042,-0.083
0.029,0.033,0.095,-0.002,-0.007,-0.088
-0.04,0.013,0.032,0.002,-0.006,-0.048
-0.057,0.038,0.018,0.052,-0.042,-0.107
-0.073,-0.033,0.055,0.035,-0.037,-0.085
-0.131,-0.142,0.14,-0.036,0.013,-0.019
-0.139,-0.103,0.112,-0.045,0.058,0.004
-0.136,-0.079,0.054,-0.026,0,-0.003
-0.097,-0.067,0,0.018,-0.16,-0.028
-0.023,0.002,0.002,0.013,-0.165,-0.038
0.043,0.049,-0.07,0.05,-0.112,-0.049
0.058,-0.002,-0.099,0.096,-0.043,-0.018
0.047,-0.1,-0.069,-0.028,0.132,0.028
0.063,-0.107,-0.009,-0.131,0.216,0.044
0.072,-0.212,0.085,-0.219,0.251,0.092
0.108,-0.163,0.076,-0.152,0.119,0.01
0.138,-0.022,-0.065,-0.007,0.077,-0.047
0.106,0.026,-0.115,-0.041,0.057,-0.054
0.085,0.056,-0.077,0.001,0.007,-0.105
0.06,0.062,-0.072,0.014,-0.047,-0.073
0.073,0.043,-0.066,-0.018,-0.04,-0.069
0.087,0.011,0.016,0.041,-0.06,-0.09
0.093,-0.045,-0.001,0.1,-0.093,-0.082
0.08,-0.044,0.008,0.033,-0.008,-0.06
0.027,-0.081,-0.04,-0.017,0.099,0.01
-0.004,-0.079,-0.005,-0.09,0.115,0.015
0.009,-0.038,0.045,-0.075,0.03,-0.02
0.047,0.062,0.004,-0.017,-0.091,-0.088
0.009,0.069,0.008,0.052,-0.166,-0.085
0.012,0.078,-0.002,0.099,-0.155,-0.075
0.01,0.064,-0.185,0.201,-0.081,-0.06
-0.056,-0.065,-0.293,0.173,0.06,0.037
-0.066,-0.081,-0.35,0.294,-0.08,-0.028
-0.032,-0.011,-0.426,0.373,-0.155,-0.038
-0.017,-0.038,-0.418,0.334,-0.171,-0.015
-0.019,-0.011,-0.367,0.356,-0.215,-0.023
-0.009,0.04,-0.289,0.167,-0.041,0.028
0.027,0.1,-0.081,0.091,-0.09,-0.072
0.028,0.015,0.188,-0.081,-0.085,-0.038
-0.021,-0.09,0.296,-0.27,0.154,0.025
0.008,0.011,0.206,-0.234,0.076,-0.022
-0.008,-0.043,0.186,-0.263,0.168,0.03
-0.019,-0.065,0.185,-0.375,0.173,0.044
-0.003,-0.042,0.106,-0.194,0.031,0.008
0.015,-0.046,0.04,0.059,-0.144,-0.033
0.057,-0.045,0.074,0.109,-0.248,-0.043
0.005,-0.167,0.128,0.026,-0.185,0.06
-0.083,-0.275,0.155,-0.252,0.087,0.166
-0.059,-0.072,-0.003,-0.202,0.122,0.108
-0.012,0.071,-0.15,-0.008,-0.014,0.021
-0.003,0.019,-0.204,0.153,-0.01,0.098
-0.059,-0.107,-0.188,-0.111,0.345,0.211
-0.031,-0.075,-0.214,0.035,0.143,0.098
-0.024,-0.079,-0.261,0.213,-0.121,0.077
-0.003,-0.044,-0.263,0.163,-0.172,0.083
0.018,0.015,-0.281,0.097,-0.094,0.039
0.049,0.082,-0.326,0.107,-0.235,-0.052
0.054,0.143,-0.434,0.291,-0.23,-0.082
0.043,0.092,-0.399,0.363,-0.166,-0.075
0.065,0.045,-0.294,0.323,-0.013,-0.025
0.059,0.055,-0.198,0.205,0.044,-0.035
0.064,-0.016,-0.129,0.095,-0.07,-0.094
0.053,-0.053,-0.006,-0.015,-0.032,-0.052
0.015,-0.061,-0.037,0.098,-0.074,-0.012
-0.03,-0.066,-0.02,0.17,-0.056,0.088
-0.09,-0.264,0.148,-0.18,0.144,0.178
-0.053,-0.208,0.088,-0.118,0.04,0.102
0.009,-0.089,-0.025,0.002,-0.083,0.049
0.027,-0.018,-0.034,-0.156,0.095,0.042
0.125,0.244,-0.199,0.083,-0.108,-0.228
0.129,0.159,-0.206,0.071,-0.048,-0.166
0.129,0.073,-0.103,0.063,-0.145,-0.2
0.121,0.053,-0.068,0.064,-0.289,-0.173
0.037,-0.045,-0.06,0.013,-0.28,-0.035
-0.034,-0.069,-0.06,-0.002,-0.185,0.068
-0.063,0.04,-0.11,-0.109,0.025,0.134
-0.074,0.055,-0.234,-0.06,0.204,0.077
-0.069,0.015,-0.199,-0.109,0.237,0.027
-0.034,0.072,-0.204,0.05,0.162,-0.026
-0.01,0.126,-0.157,0.112,-0.024,-0.138
-0.007,0.079,0,0.091,-0.19,-0.156
-0.017,0.017,0.119,0.018,-0.188,-0.088
-0.068,-0.152,0.271,-0.127,-0.152,-0.017
-0.022,-0.017,0.231,0.079,-0.369,-0.092
-0.076,-0.114,0.17,0.041,-0.212,-0.028
-0.18,-0.334,0.277,-0.122,0.083,0.107
-0.177,-0.314,0.366,-0.267,0.13,0.084
-0.095,-0.128,0.339,-0.442,0.211,0.054
-0.022,-0.062,0.22,-0.484,0.344,0.033
0.046,-0.122,0.238,-0.465,0.282,-0.005
0.083,-0.07,0.185,-0.397,0.246,-0.005
0.174,0.145,0.01,-0.191,0.216,-0.078
0.178,0.124,-0.068,-0.015,0.05,-0.089
0.151,0.059,0.001,-0.041,0.046,-0.075
0.113,0.01,0.096,-0.073,0.052,-0.036
-0.003,-0.095,0.223,-0.08,0.063,-0.012
-0.113,-0.142,0.162,-0.116,0.065,0.078
-0.116,-0.096,0.136,-0.162,0.141,0.052
-0.114,-0.03,0.094,-0.079,0.103,0.047
-0.081,0.117,0.005,0.154,-0.089,-0.041
-0.058,0.128,-0.081,0.191,-0.078,-0.013
-0.07,0.065,-0.071,0.157,-0.002,0.03
-0.07,-0.009,-0.088,0.265,-0.033,0.092
-0.098,-0.12,-0.062,0.317,-0.176,0.113
-0.059,-0.081,-0.061,0.441,-0.358,0.057
-0.083,-0.154,0.035,0.328,-0.19,0.18
-0.071,-0.278,0.305,-0.093,0.158,0.241
-0.005,-0.152,0.37,-0.242,0.155,0.094
0.08,-0.014,0.304,-0.172,-0.103,-0.015
0.129,0.019,0.336,-0.248,-0.091,0.076
0.131,0.019,0.346,-0.218,-0.212,0.036
0.1,0.04,0.228,-0.155,-0.157,0.095
0.024,-0.029,0.199,-0.231,0.076,0.122
0.026,-0.046,0.218,-0.279,0.244,0.107
0.074,0.081,0.121,-0.227,0.226,-0.001
0.044,0.057,0.076,-0.12,0.103,0.001
-0.053,-0.051,0.115,-0.101,0.045,0.098
-0.104,-0.109,0.134,-0.08,0.046,0.068
-0.121,-0.11,0.183,-0.03,0.046,0.137
-0.089,-0.118,0.179,-0.089,0.107,0.153
-0.088,-0.163,0.209,-0.233,0.197,0.113
-0.057,-0.043,0.08,0.103,-0.019,0.072
-0.029,0.021,-0.027,0.155,-0.006,0.096
0.023,0.051,-0.004,0.128,-0.052,0.082
0.02,-0.033,0.066,0.111,-0.063,0.124
0.008,-0.087,0.141,0.025,-0.043,0.168
0.01,-0.089,0.203,0.066,-0.109,0.114
-0.056,-0.202,0.374,-0.008,-0.029,0.189
-0.077,-0.217,0.443,-0.167,0.049,0.201
-0.101,-0.249,0.411,-0.324,0.162,0.285
-0.082,-0.207,0.316,-0.142,0.106,0.224
-0.07,-0.249,0.279,-0.053,0.094,0.206
-0.023,-0.236,0.178,-0.099,0.077,0.168
0.039,-0.011,-0.2,0.079,0.025,0.13
0.091,0.123,-0.422,0.352,-0.091,0.086
0.121,0.177,-0.49,0.346,-0.08,0.045
0.217,0.297,-0.567,0.561,-0.277,-0.075
0.215,0.271,-0.491,0.424,-0.181,-0.018
0.199,0.112,-0.173,0.297,-0.264,-0.077
0.193,0.111,0.079,0.162,-0.275,-0.052
0.144,0.08,0.304,-0.016,-0.284,-0.037
0.016,-0.058,0.604,-0.436,-0.066,0.136
-0.07,-0.074,0.557,-0.425,0.048,0.183
-0.111,-0.106,0.42,-0.25,0.125,0.205
-0.092,-0.179,0.33,-0.229,0.145,0.145
-0.071,-0.057,0.07,-0.066,0.128,0.171
-0.045,-0.003,-0.106,0.212,-0.082,0.119
-0.032,-0.09,-0.141,0.289,0.018,0.136
0.001,-0.069,-0.187,0.441,-0.402,-0.01
0.007,-0.131,-0.093,0.448,-0.48,-0.024
-0.015,-0.261,0.058,0.081,-0.271,-0.002
0.015,-0.073,0.163,-0.09,-0.063,-0.05
0.152,0.3,0.036,-0.191,0.177,-0.185
0.123,0.202,0.102,-0.449,0.36,-0.095
0.059,0.055,0.131,-0.3,0.224,-0.008
0.013,-0.005,0.088,-0.148,0.083,-0.02
0.008,-0.045,0.061,-0.086,0.061,-0.036
-0.009,-0.082,0.083,-0.069,-0.04,-0.03
-0.041,-0.147,0.061,-0.02,-0.111,0.042
-0.019,-0.109,-0.023,0.231,-0.363,-0.024
0.013,-0.059,-0.153,0.52,-0.511,-0.024
-0.035,-0.167,-0.069,0.313,-0.165,0.074
-0.089,-0.246,0.082,-0.091,0.28,0.053
-0.019,-0.032,-0.05,0.005,0.315,-0.111
0.025,0.152,-0.175,0.209,0.192,-0.177
0.019,0.059,0.053,0.015,0.155,-0.106
-0.011,-0.025,0.273,-0.251,0.28,0.026
-0.008,-0.096,0.337,-0.453,0.347,0.066
0.026,-0.009,0.237,-0.446,0.212,-0.056
0.074,0.181,-0.002,-0.199,0.025,-0.134
0.077,0.153,-0.023,-0.021,-0.128,-0.184
0.045,0.021,0.017,-0.084,0.026,-0.072
-0.002,-0.065,0.053,-0.232,0.179,-0.061
-0.021,-0.105,0.082,-0.236,0.068,-0.073
0.043,-0.046,0.028,0.09,-0.204,-0.16
0.052,-0.094,0.073,0.176,-0.377,-0.155
0.008,-0.15,0.089,0.135,-0.377,-0.115
-0.084,-0.277,0.118,0.18,-0.312,-0.008
-0.142,-0.386,0.158,0.228,-0.497,0.114
-0.041,-0.197,0.084,0.182,-0.417,0.045
0.063,0.043,-0.093,0.318,-0.342,-0.077
0.043,0.005,-0.075,0.241,-0.044,-0.094
-0.031,0.016,0.021,-0.083,0.242,-0.133
0.061,0.313,0.017,-0.137,0.439,-0.274
0.05,0.278,0.174,-0.253,0.34,-0.255
-0.046,0.136,0.313,-0.342,0.294,-0.237
-0.152,-0.018,0.313,-0.315,0.187,-0.153
-0.186,-0.077,0.245,-0.202,0.095,-0.127
-0.144,-0.086,0.192,-0.127,0.037,-0.12
-0.046,-0.088,0.156,-0.117,0.028,-0.105
-0.017,-0.103,0.145,-0.197,0.1,-0.026
0.031,-0.058,0.076,-0.114,0.057,-0.012
0.071,-0.128,0.112,-0.078,-0.054,-0.012
0.078,-0.176,0.158,-0.129,-0.019,-0.012
0.065,-0.228,0.186,-0.109,-0.062,0.017
0.077,-0.175,0.091,0.034,-0.096,-0.015
0.086,-0.1,0.031,0.051,-0.032,0.021
0.02,-0.114,0.041,0.096,-0.089,-0.001
-0.032,-0.189,0.155,-0.018,0.022,0.08
-0.056,-0.175,0.156,-0.042,0.093,0.083
-0.034,-0.151,0.179,-0.11,-0.028,0.046
-0.039,-0.122,0.185,-0.03,-0.136,0.024
-0.04,-0.013,0.104,0.344,-0.375,-0.049
0.016,-0.016,0.089,0.223,-0.06,-0.074
0.119,0.095,-0.014,0.176,0.047,-0.255
0.098,0.037,0.061,-0.083,0.28,-0.248
0.063,0.195,-0.106,0.029,0.014,-0.161
0.039,0.142,-0.093,0.187,-0.159,-0.104
0.009,0.06,0.018,0.121,-0.09,0.014
-0.049,-0.113,0.1,-0.081,-0.019,0.054
-0.043,-0.236,0.211,-0.115,-0.06,0.023
-0.044,-0.291,0.159,-0.105,0.106,0.142
-0.022,-0.213,0.052,-0.041,0.149,0.104
-0.003,-0.103,-0.094,-0.046,-0.005,-0.002
0.035,-0.015,-0.238,0.106,0.052,0.074
0.112,0.092,-0.261,0.289,-0.226,-0.021
0.189,0.177,-0.285,0.396,-0.309,-0.096
0.16,0.019,-0.09,0.164,-0.068,-0.04
0.089,-0.001,0.111,0.111,-0.098,-0.021
0.086,0.12,0.133,0.02,0.017,-0.009
0.001,-0.041,0.314,-0.26,-0.003,-0.041
-0.117,-0.185,0.484,-0.626,0.233,0.069
-0.096,-0.043,0.311,-0.295,0.108,-0.035
-0.122,-0.1,0.137,0.019,-0.094,0.06
-0.114,-0.147,0.124,0.006,-0.13,0.133
-0.134,-0.305,0.296,-0.281,0.074,0.198
-0.065,-0.206,0.271,-0.1,-0.071,0.016
0.023,-0.066,0.16,0.041,-0.078,-0.116
0.028,-0.034,0.095,-0.075,0.163,-0.044
0.019,-0.026,-0.015,-0.204,0.339,0.039
0.059,0.171,-0.343,0.103,0.1,0.007
0.016,0.02,-0.409,0.267,-0.052,0.043
0.036,0.023,-0.334,0.234,-0.164,-0.038
0.08,0.127,-0.324,0.264,-0.338,-0.132
0.036,0.056,-0.251,0.104,-0.013,0.025
0.022,0.006,-0.142,0.004,0.085,-0.033
0.084,0.129,-0.034,0.015,0.045,-0.149
0.087,0.103,0.038,-0.094,-0.072,-0.118
0.088,0.078,0.049,0.006,-0.216,-0.073
0.041,-0.029,0.072,0.133,-0.311,-0.021
-0.014,-0.108,0.109,0.108,-0.236,0.082
-0.073,-0.163,0.182,-0.053,0.072,0.168
-0.075,-0.123,0.054,-0.086,0.391,0.091
-0.036,0.01,-0.076,-0.051,0.405,-0.019
0.019,0.104,-0.157,0.181,0.125,-0.124
0.043,0.081,-0.103,0.222,-0.162,-0.184
0.004,-0.009,-0.037,0.07,-0.236,-0.062
0.038,0.005,-0.01,0.316,-0.581,-0.168
0.049,-0.15,0.201,0.183,-0.524,-0.157
-0.055,-0.324,0.387,-0.252,-0.152,0.014
-0.025,-0.297,0.382,-0.508,0.192,-0.028
0.031,-0.029,0.06,-0.426,0.409,-0.017
0.028,-0.004,-0.136,-0.145,0.185,-0.01
0.015,0.031,-0.177,-0.002,-0.083,-0.042
0.015,0.108,-0.216,0.125,-0.064,-0.022
-0.056,0.034,-0.231,-0.062,0.261,0.041
-0.163,-0.108,-0.112,-0.295,0.379,-0.044
-0.119,-0.021,-0.096,-0.168,0.13,-0.192
-0.108,0.097,-0.151,-0.009,-0.015,-0.203
-0.147,0.116,-0.194,-0.067,0.064,-0.157
-0.125,0.06,-0.087,-0.307,0.256,-0.126
-0.08,0.018,-0.024,-0.257,0.246,-0.17
-0.015,0.012,-0.172,0.006,0.058,-0.166
0.04,0.019,-0.241,0.179,-0.072,-0.144
0.068,-0.001,-0.29,0.222,-0.085,-0.064
0.065,-0.127,-0.219,0.088,0.049,0.038
0.077,-0.053,-0.282,0.221,-0.04,0.025
0.16,0.102,-0.324,0.376,-0.331,-0.13
0.187,0.014,-0.198,0.495,-0.531,-0.128
0.11,-0.143,-0.04,0.287,-0.374,-0.069
0.098,-0.096,0.019,0.061,-0.187,-0.096
0.077,-0.04,-0.04,-0.092,0.172,-0.131
0.184,0.247,-0.049,-0.201,0.344,-0.262
0.119,0.21,0.191,-0.558,0.274,-0.26
-0.111,0.025,0.361,-0.69,0.278,-0.143
-0.219,0.03,0.241,-0.521,0.217,-0.09
-0.28,-0.013,0.13,-0.332,0.18,-0.041
-0.287,-0.069,0.076,-0.255,0.15,-0.019
-0.244,-0.084,0.096,-0.197,0.138,-0.014
-0.164,-0.088,0.109,-0.157,0.148,-0.009
-0.088,-0.087,0.095,-0.154,0.159,-0.02
-0.052,-0.148,0.149,-0.132,0.043,-0.076
0.009,-0.139,0.063,0.058,-0.114,-0.057
0.063,-0.135,-0.027,0.327,-0.376,-0.078
0.102,-0.114,-0.141,0.453,-0.321,-0.044
0.086,-0.191,-0.127,0.26,0.035,0.022
0.132,-0.107,-0.163,0.305,-0.182,-0.067
0.157,0.041,-0.257,0.139,-0.047,-0.079
0.16,0.131,-0.288,0.173,-0.13,-0.065
0.132,0.098,-0.242,0.222,-0.206,-0.044
0.065,-0.066,-0.002,0.037,-0.19,0.029
0.016,-0.19,0.147,-0.289,0.232,0.22
0.027,-0.117,0.122,-0.356,0.236,0.125
0.017,-0.124,0.032,-0.318,0.32,0.122
0.08,0.119,-0.132,0.195,-0.201,0.009
0.186,0.241,-0.132,0.426,-0.716,-0.208
0.15,0.231,-0.176,0.367,-0.646,-0.088
0.107,0.025,-0.143,0.272,-0.413,-0.182
0.066,-0.009,-0.057,0.211,-0.262,-0.172
0.028,0.031,-0.079,0.177,-0.028,-0.122
0,0.027,-0.087,0.074,0.175,-0.065
-0.026,-0.046,0.091,-0.105,0.251,-0.058
0.002,0.02,0.14,-0.182,0.242,-0.065
-0.027,-0.061,0.308,-0.359,0.354,-0.021
-0.041,-0.116,0.34,-0.498,0.403,-0.007
-0.028,-0.197,0.338,-0.381,0.2,-0.005
0.032,0.008,0.139,-0.077,0.185,-0.087
0.094,0.24,-0.204,0.184,0.014,-0.181
0.065,0.096,-0.176,0.083,-0.031,-0.144
0.077,0.093,-0.091,0.009,0.068,-0.106
0.113,0.186,-0.121,0.091,-0.122,-0.244
0.122,0.12,-0.025,0.089,-0.249,-0.261
0.033,-0.017,0.191,-0.122,-0.186,-0.194
-0.079,-0.083,0.294,-0.522,0.213,-0.012
-0.178,-0.125,0.246,-0.404,0.198,0.071
-0.209,-0.155,0.189,-0.334,0.176,0.112
-0.125,-0.048,0.019,-0.181,0.297,0.071
-0.063,-0.037,-0.007,-0.135,0.175,-0.007
0.001,0.024,-0.018,-0.082,-0.024,-0.064
-0.002,-0.022,0.028,0.126,-0.335,-0.143
-0.002,-0.035,0.045,0.144,-0.303,-0.195
0.019,-0.006,0.047,0.071,-0.051,-0.093
0.006,-0.032,0.067,0.084,-0.188,-0.119
0.007,-0.021,0.068,-0.013,-0.017,-0.059
0.026,0.012,0.006,-0.029,0.016,-0.06
0.057,-0.016,-0.024,0.219,-0.064,-0.075
0.081,-0.016,0.02,0.11,0.059,-0.173
0.091,-0.004,-0.001,0.143,-0.083,-0.191
-0.019,-0.119,-0.045,0.055,0.034,0.004
-0.15,-0.297,-0.019,-0.092,-0.002,0.083
-0.14,-0.218,0.06,0.114,-0.353,0.017
-0.056,-0.021,-0.117,0.375,-0.611,0.037
-0.055,-0.148,-0.158,0.202,-0.468,0.113
-0.067,-0.207,-0.143,-0.048,0.114,0.085
0.032,0.028,-0.401,0.038,0.359,-0.146
0.189,0.445,-0.655,0.239,0.311,-0.399
0.184,0.371,-0.388,0.13,0.114,-0.372
0.08,0.158,-0.109,0.113,-0.064,-0.189
0.023,0.066,-0.002,0.2,-0.168,-0.065
-0.004,-0.008,0.058,0.039,-0.058,0.019
-0.003,-0.094,0.216,-0.096,0.021,0.022
0.013,-0.111,0.441,-0.271,-0.069,-0.099
0.068,-0.045,0.319,-0.244,-0.22,-0.166
0.08,-0.045,0.282,-0.242,-0.144,-0.094
0.018,-0.083,0.282,-0.305,0.084,-0.017
-0.061,-0.083,0.195,-0.285,0.319,-0.037
-0.098,-0.036,0.077,-0.134,0.183,-0.057
-0.076,0.016,0.035,0.054,-0.167,-0.085
-0.081,-0.098,0.027,0.212,-0.343,-0.053
-0.153,-0.188,0.009,0.039,0.1,0.046
-0.124,-0.114,-0.046,-0.21,0.449,0.001
-0.065,-0.052,0.004,-0.462,0.515,-0.053
0.02,0.099,-0.18,-0.14,0.259,-0.148
-0.002,-0.025,-0.268,-0,0.057,-0.127
0.005,-0.025,-0.382,0.275,-0.093,-0.127
0.01,-0.048,-0.438,0.354,-0.18,-0.095
-0.001,-0.035,-0.366,0.333,-0.326,-0.06
0.05,0.019,-0.291,0.37,-0.324,-0.101
0.098,0.012,-0.111,0.304,-0.407,-0.173
0.066,-0.157,0.206,0.051,-0.263,-0.071
0.044,-0.234,0.351,-0.405,0.185,-0.016
0.014,-0.213,0.488,-0.68,0.408,0.02
-0.13,-0.208,0.431,-0.694,0.516,0.078
-0.134,-0.011,0.196,-0.461,0.438,0.028
-0.093,0.106,0.065,-0.272,0.242,-0.099
-0.09,0.078,0.083,-0.044,-0.085,-0.152
-0.073,0.053,0.07,-0.006,-0.169,-0.157
-0.002,0.131,-0.101,0.23,-0.383,-0.168
0.044,0.076,-0.113,0.191,-0.313,-0.082
0.021,-0.055,-0.075,0.114,-0.129,-0.052
0.046,-0.084,-0.097,0.193,-0.001,-0.119
0.072,-0.075,-0.082,-0.048,0.121,-0.126
0.104,-0.004,-0.048,-0.099,0.15,-0.068
0.149,0.052,0.003,0.005,-0.094,-0.176
0.149,-0.008,0.099,0.053,-0.11,-0.126
0.1,-0.097,0.1,0.14,-0.202,-0.079
0.057,-0.115,0.048,0.28,-0.323,0.038
-0.025,-0.191,0.138,0.104,-0.238,0.133
-0.149,-0.337,0.158,-0.435,0.364,0.29
-0.094,-0.285,0.163,-0.493,0.399,0.012
0.061,-0.009,-0.003,-0.099,0.118,-0.177
0.131,0.131,-0.203,0.083,0.038,-0.166
0.122,0.139,-0.191,0.154,0.018,-0.18
0.097,0.124,-0.173,0.158,-0.073,-0.125
0.06,0.092,-0.22,0.214,-0.149,-0.121
0.024,0.029,-0.179,0.387,-0.143,-0.08
-0.003,-0.009,-0.044,0.208,0.115,-0.087
0.007,-0.047,0.114,-0.029,0.06,-0.139
-0.009,-0.106,0.188,-0.173,0.003,-0.106
-0.027,-0.146,0.249,-0.234,0.011,-0.067
-0.021,-0.157,0.382,-0.294,-0.014,-0.055
-0.056,-0.174,0.34,-0.269,-0.059,0.01
-0.046,-0.158,0.194,-0.112,-0.369,0.028
-0.01,-0.198,0.045,0.05,-0.459,0.008
0.005,-0.185,-0.038,0.065,-0.237,0.007
0.046,-0.098,-0.107,0.048,-0.14,-0.07
0.067,-0.011,-0.133,-0.096,0.421,-0.123
0.096,0.038,-0.184,-0.031,0.39,-0.221
-0.027,-0.026,-0.117,0.158,0.062,-0.114
-0.062,0.033,-0.046,0.115,-0.03,-0.061
-0.065,0.089,-0.004,-0.046,0.057,-0.056
-0.058,0.102,0.057,-0.072,0.05,-0.09
-0.025,0.048,0.065,0.089,-0.137,-0.178
0.002,0.008,0.145,0.069,-0.037,-0.145
0.022,-0.039,0.242,-0.14,0.097,-0.05
0.008,-0.101,0.28,-0.262,0.132,-0.071
-0.034,-0.124,0.233,-0.211,0.063,-0.034
-0.073,-0.069,0.107,-0.089,-0.019,-0.04
-0.036,0.002,0.002,0.086,-0.084,-0.04
-0.038,0.012,-0.031,0.087,-0.03,0.037
-0.071,-0.12,0.077,-0.159,0.132,0.079
-0.049,-0.173,0.203,-0.391,0.257,-0.001
0.022,-0.018,0.152,-0.194,0.036,-0.103
0.038,0.032,0.004,0.063,-0.174,-0.14
0.016,-0.018,0.025,0.095,-0.164,-0.102
0.025,-0.068,0.036,0.053,0.018,-0.034
0.04,-0.035,-0.062,0.087,0.051,-0.074
0.021,-0.06,-0.157,0.32,-0.184,-0.063
-0.009,-0.134,-0.136,0.157,-0.134,-0.004
-0.008,-0.096,-0.111,0.058,0.07,-0.011
0.089,0.072,-0.227,0.338,-0.156,-0.167
0.115,-0.004,-0.142,0.292,-0.291,-0.197
0.134,0.031,-0.021,0.336,-0.359,-0.212
0.113,-0.033,0.189,0.161,-0.258,-0.107
0.012,-0.151,0.402,-0.045,-0.134,0.047
-0.058,-0.183,0.458,-0.373,0.135,0.067
-0.093,-0.291,0.543,-0.505,0.286,0.068
-0.107,-0.266,0.521,-0.69,0.705,0.159
-0.099,-0.122,0.19,-0.453,0.397,0.014
-0.033,-0.004,-0.042,0.016,-0.07,-0.162
0.011,0.119,-0.194,0.196,-0.178,-0.16
0.019,0.138,-0.24,0.35,-0.297,-0.129
0.01,0.09,-0.232,0.329,-0.336,-0.002
0.004,-0.052,-0.034,0.185,-0.323,0.038
0.04,-0.01,0.088,0.008,-0.032,0.022
0.045,-0.089,0.218,-0.407,0.325,-0.018
0.053,-0.11,0.236,-0.325,0.047,-0.11
0.059,-0.034,0.074,-0.183,0.098,-0.061
0.043,-0.027,0.057,-0.183,0.151,-0.02
-0.002,-0.102,0.06,-0.052,-0.148,-0.107
0.051,0.061,-0.037,0.222,-0.221,-0.184
0.044,0.051,-0.05,0.068,0.108,-0.104
-0.036,-0.104,0.157,-0.129,0.215,-0.017
-0.01,0.014,0.125,-0.11,0.201,-0.073
-0.033,-0.009,0.134,-0.066,0.05,-0.115
-0.085,-0.091,0.121,-0.068,-0.089,-0.076
-0.109,-0.162,0.109,-0.012,-0.147,-0.026
-0.131,-0.272,0.138,-0.03,-0.153,0.004
-0.081,-0.153,0.067,0.036,-0.049,-0.027
0.011,-0.002,-0.042,0.151,-0.184,-0.17
0.057,0.029,-0.111,0.178,-0.173,-0.164
0.043,0.025,-0.13,0.096,-0.093,-0.157
0.057,0.027,-0.12,0.016,0.033,-0.13
0.057,0.002,-0.114,-0.071,0.16,-0.14
0.045,-0.044,-0.114,-0.084,0.19,-0.087
0.07,0.013,-0.126,0.033,-0.076,-0.158
0.029,0.031,-0.11,0.038,-0.129,-0.165
0.006,-0.058,0.01,0.019,-0.1,-0.138
-0.033,-0.086,0.113,-0.06,-0.055,-0.094
-0.063,-0.089,0.161,-0.164,0.014,-0.052
-0.087,-0.133,0.226,-0.308,0.155,-0.015
-0.072,-0.162,0.175,-0.315,0.246,0.05
-0.034,-0.082,0.148,-0.212,0.229,-0.067
-0.036,-0.084,0.114,-0.181,0.199,-0.076
-0.015,-0.016,0.089,-0.116,0.111,-0.08
-0.007,-0.038,0.1,-0.034,-0.01,-0.09
0.012,-0.029,0.086,0.021,-0.075,-0.092
0.001,-0.033,0.051,0.058,-0.133,-0.073
-0.025,-0.082,0.004,0.138,-0.237,-0.043
-0.082,-0.157,-0.002,0.048,-0.051,0.078
-0.18,-0.262,-0.082,0.107,-0.024,0.111
-0.13,-0.229,-0.179,0.19,-0.006,-0.004
-0.059,-0.23,-0.152,0.247,-0.02,-0.053
-0.058,-0.281,-0.143,0.197,0.094,-0.09
-0.055,-0.344,-0.104,-0.087,0.07,-0.082
0.018,-0.199,-0.045,-0.243,0.201,-0.101
0.168,0.057,-0.006,-0.123,0.044,-0.24
0.267,0.202,-0.032,-0.009,-0.153,-0.305
0.226,0.179,-0.011,0.009,-0.154,-0.243
0.169,0.224,-0.117,0.141,-0.215,-0.153
0.111,0.27,-0.122,0.204,-0.15,-0.084
-0.007,0.119,-0.048,0.102,-0.027,0.038
-0.066,-0.049,0.005,-0.099,0.174,0.104
-0.038,0.065,-0.099,-0.082,0.143,-0.004
0.131,0.219,-0.115,0.232,-0.212,-0.235
0.185,0.17,0.009,0.105,-0.211,-0.202
0.135,0.082,0.137,-0.086,0.08,-0.09
0.083,0.022,0.146,-0.098,0.079,-0.081
-0.004,-0.05,0.141,-0.063,0.079,-0.006
-0.019,-0.069,0.167,-0.003,-0.004,0.008
0.006,-0.069,0.191,-0.217,0.088,0.024
-0.003,-0.086,0.155,-0.205,-0.053,0.037
